AFE_REG_6D_Time,AFE_REG_6D_Value,ECG_Time,ECG_Value,ECG_RAW_Time,ECG_RAW_Value,TIA1-3_Time,TIA1-3_Value,TIA1-3_RAW_Time,TIA1-3_RAW_Value
0.0,10.0,0.0,0.008033180236816406,0.0,14039.0,0.0,-0.7491680145263672,0.0,15467950.0,
0.0005,10.0,0.002,0.0030755996704101562,0.002,5375.0,0.02,-0.7525251388549804,0.02,15462083.0,
0.001,10.0,0.004,0.0004915237426757812,0.004,859.0,0.04,-0.7555887222290039,0.04,15456729.0,
0.0015,10.0,0.006,-0.0004245758056640625,0.006,16776474.0,0.06,-0.7576623916625976,0.06,15453105.0,
0.002,10.0,0.008,-0.0070512771606445306,0.008,16764893.0,0.08,-0.7591747283935547,0.08,15450462.0,
0.0025,10.0,0.01,-0.011846923828125,0.01,16756512.0,0.1,-0.7601800918579101,0.1,15448705.0,
0.003,10.0,0.012,-0.006068801879882812,0.012,16766610.0,0.12,-0.760524559020996,0.12,15448103.0,
0.0035,10.0,0.014,0.00394134521484375,0.014,6888.0,0.14,-0.760249900817871,0.14,15448583.0,
0.004,10.0,0.016,0.009951210021972657,0.016,17391.0,0.16,-0.7599529266357422,0.16,15449102.0,
0.0045,10.0,0.018,0.0061969757080078125,0.018,10830.0,0.18,-0.7593257904052734,0.18,15450198.0,
0.005,10.0,0.02,0.0025142669677734376,0.02,4394.0,0.2,-0.7587427139282227,0.2,15451217.0,
0.0055,10.0,0.022,0.0010786056518554688,0.022,1885.0,0.22,-0.7576623916625976,0.22,15453105.0,
0.006,10.0,0.024,-0.0052001953125,0.024,16768128.0,0.24,-0.7563274383544921,0.24,15455438.0,
0.0065,10.0,0.026,-0.01019439697265625,0.026,16759400.0,0.26,-0.7547264099121094,0.26,15458236.0,
0.007,10.0,0.028,-0.010105133056640625,0.028,16759556.0,0.28,-0.7530126571655273,0.28,15461231.0,
0.0075,10.0,0.03,0.0015432357788085938,0.03,2697.0,0.3,-0.7507621765136718,0.3,15465164.0,
0.008,10.0,0.032,0.010576629638671875,0.032,18484.0,0.32,-0.7485912322998046,0.32,15468958.0,
0.0085,10.0,0.034,0.010783767700195313,0.034,18846.0,0.34,-0.7466920852661133,0.34,15472277.0,
0.009,10.0,0.036,0.006838417053222656,0.036,11951.0,0.36,-0.7469341278076171,0.36,15471854.0,
0.0095,10.0,0.038,0.006474494934082031,0.038,11315.0,0.38,-0.7517034530639648,0.38,15463519.0,
0.01,10.0,0.04,0.00130462646484375,0.04,2280.0,0.4,-0.7609033584594727,0.4,15447441.0,
0.0105,10.0,0.042,-0.00463714599609375,0.042,16769112.0,0.42,-0.7720287322998046,0.42,15427998.0,
0.011,10.0,0.044,-0.00665130615234375,0.044,16765592.0,0.44,-0.7828502655029297,0.44,15409086.0,
0.0115,10.0,0.046,0.004813385009765625,0.046,8412.0,0.46,-0.7927740097045898,0.46,15391743.0,
0.012,10.0,0.048,0.012070083618164062,0.048,21094.0,0.48,-0.8007442474365234,0.48,15377814.0,
0.0125,10.0,0.05,0.014270782470703125,0.05,24940.0,0.5,-0.807242202758789,0.5,15366458.0,
0.013,10.0,0.052,0.008412551879882811,0.052,14702.0,0.52,-0.8119806289672852,0.52,15358177.0,
0.0135,10.0,0.054,0.00569915771484375,0.054,9960.0,0.54,-0.8153079986572266,0.54,15352362.0,
0.014,10.0,0.056,0.004255485534667969,0.056,7437.0,0.56,-0.8167522430419921,0.56,15349838.0,
0.0145,10.0,0.058,-0.0017881393432617188,0.058,16774091.0,0.58,-0.8173261642456054,0.58,15348835.0,
0.015,10.0,0.06,-0.00673370361328125,0.06,16765448.0,0.6,-0.8180946350097656,0.6,15347492.0,
0.0155,10.0,0.062,-0.0006145477294921875,0.062,16776142.0,0.62,-0.8186868667602539,0.62,15346457.0,
0.016,10.0,0.064,0.008692359924316407,0.064,15191.0,0.64,-0.8197952270507812,0.64,15344520.0,
0.0165,10.0,0.066,0.014092254638671874,0.066,24628.0,0.66,-0.8214546203613281,0.66,15341620.0,
0.017,10.0,0.068,0.008456611633300781,0.068,14779.0,0.68,-0.8228376388549804,0.68,15339203.0,
0.0175,10.0,0.07,0.005237388610839844,0.07,9153.0,0.7,-0.8240861892700195,0.7,15337021.0,
0.018,10.0,0.072,0.0028638839721679688,0.072,5005.0,0.72,-0.8247407913208008,0.72,15335877.0,
0.0185,10.0,0.074,-0.0038257598876953124,0.074,16770530.0,0.74,-0.8246623992919921,0.74,15336014.0,
0.019,10.0,0.076,-0.00944538116455078,0.076,16760709.0,0.76,-0.8243854522705077,0.76,15336498.0,
0.0195,10.0,0.078,-0.008621978759765624,0.078,16762148.0,0.78,-0.823271369934082,0.78,15338445.0,
0.02,10.0,0.08,0.0024015426635742186,0.08,4197.0,0.8,-0.821872329711914,0.8,15340890.0,
0.0205,10.0,0.082,0.0101898193359375,0.082,17808.0,0.82,-0.8199565887451171,0.82,15344238.0,
0.021,10.0,0.084,0.00910205841064453,0.084,15907.0,0.84,-0.8173542022705078,0.84,15348786.0,
0.0215,10.0,0.086,0.004175376892089844,0.086,7297.0,0.86,-0.8149051666259766,0.86,15353066.0,
0.022,10.0,0.088,0.0028924942016601562,0.088,5055.0,0.88,-0.8120979309082031,0.88,15357972.0,
0.0225,10.0,0.09,-0.0026790618896484373,0.09,16772534.0,0.9,-0.8093524932861328,0.9,15362770.0,
0.023,10.0,0.092,-0.008069801330566406,0.092,16763113.0,0.92,-0.8062911987304687,0.92,15368120.0,
0.0235,10.0,0.094,-0.010607528686523437,0.094,16758678.0,0.94,-0.8031961441040039,0.94,15373529.0,
0.024,10.0,0.096,-0.00043201446533203125,0.096,16776461.0,0.96,-0.7998842239379883,0.96,15379317.0,
0.0245,10.0,0.098,0.006526565551757812,0.098,11406.0,0.98,-0.7964086532592773,0.98,15385391.0,
0.025,10.0,0.1,0.010829544067382813,0.1,18926.0,1.0,-0.7928272247314453,1.0,15391650.0,
0.0255,10.0,0.102,0.004782485961914063,0.102,8358.0,1.02,-0.7894878387451172,1.02,15397486.0,
0.026,10.0,0.104,0.003050422668457031,0.104,5331.0,1.04,-0.785797119140625,1.04,15403936.0,
0.0265,10.0,0.106,0.001036834716796875,0.106,1812.0,1.06,-0.7827404022216796,1.06,15409278.0,
0.027,10.0,0.108,-0.0065059661865234375,0.108,16765846.0,1.08,-0.7825458526611327,1.08,15409618.0,
0.0275,10.0,0.11,-0.0109771728515625,0.11,16758032.0,1.1,-0.787053108215332,1.1,15401741.0,
0.028,10.0,0.112,-0.00399627685546875,0.112,16770232.0,1.12,-0.7945856094360352,1.12,15388577.0,
0.0285,10.0,0.114,0.006190681457519531,0.114,10819.0,1.14,-0.8025392532348633,1.14,15374677.0,
0.029,10.0,0.116,0.0121856689453125,0.116,21296.0,1.16,-0.8102405548095702,1.16,15361218.0,
0.0295,10.0,0.118,0.008215713500976562,0.118,14358.0,1.18,-0.8166812896728516,1.18,15349962.0,
0.03,10.0,0.12,0.0033794403076171874,0.12,5906.0,1.2,-0.8212800979614258,1.2,15341925.0,
0.0305,10.0,0.122,0.00218353271484375,0.122,3816.0,1.22,-0.8242687225341797,1.22,15336702.0,
0.031,10.0,0.124,-0.00491180419921875,0.124,16768632.0,1.24,-0.8261432647705078,1.24,15333426.0,
0.0315,10.0,0.126,-0.011217498779296875,0.126,16757612.0,1.26,-0.8264144897460938,1.26,15332952.0,
0.032,10.0,0.128,-0.010379791259765625,0.128,16759076.0,1.28,-0.8253107070922852,1.28,15334881.0,
0.0325,10.0,0.13,0.0011924743652343749,0.13,2084.0,1.3,-0.8241411209106445,1.3,15336925.0,
0.033,10.0,0.132,0.008687782287597656,0.132,15183.0,1.32,-0.8227329254150391,1.32,15339386.0,
0.0335,10.0,0.134,0.00736083984375,0.134,12864.0,1.34,-0.8217578887939453,1.34,15341090.0,
0.034,10.0,0.136,0.0031059265136718747,0.136,5428.0,1.36,-0.8213184356689452,1.36,15341858.0,
0.0345,10.0,0.138,0.002398681640625,0.138,4192.0,1.38,-0.8213178634643554,1.38,15341859.0,
0.035,10.0,0.14,-0.0024518966674804688,0.14,16772931.0,1.4,-0.8212984085083007,1.4,15341893.0,
0.0355,10.0,0.142,-0.00841541290283203,0.142,16762509.0,1.42,-0.8209333419799805,1.42,15342531.0,
0.036,10.0,0.144,-0.011077880859375,0.144,16757856.0,1.44,-0.8201248168945312,1.44,15343944.0,
0.0365,10.0,0.146,-0.00018367767333984374,0.146,16776895.0,1.46,-0.8184396743774414,1.46,15346889.0,
0.037,10.0,0.148,0.009513473510742188,0.148,16626.0,1.48,-0.8165788650512695,1.48,15350141.0,
0.0375,10.0,0.15,0.012111854553222655,0.15,21167.0,1.5,-0.8138368606567382,1.5,15354933.0,
0.038,10.0,0.152,0.005969810485839844,0.152,10433.0,1.52,-0.81075439453125,1.52,15360320.0,
0.0385,10.0,0.154,0.004410552978515625,0.154,7708.0,1.54,-0.8074871063232422,1.54,15366030.0,
0.039,10.0,0.156,0.002291107177734375,0.156,4004.0,1.56,-0.8037494659423828,1.56,15372562.0,
0.0395,10.0,0.158,-0.0023609161376953124,0.158,16773090.0,1.58,-0.7996770858764648,1.58,15379679.0,
0.04,10.0,0.16,-0.005674552917480469,0.16,16767299.0,1.6,-0.7956476211547852,1.6,15386721.0,
0.0405,10.0,0.162,0.0032243728637695312,0.162,5635.0,1.62,-0.7916301727294922,1.62,15393742.0,
0.041,10.0,0.164,0.013985824584960936,0.164,24442.0,1.64,-0.7874553680419921,1.64,15401038.0,
0.0415,10.0,0.166,0.018905067443847654,0.166,33039.0,1.66,-0.7834550857543945,1.66,15408029.0,
0.042,10.0,0.168,0.014888191223144531,0.168,26019.0,1.68,-0.7792327880859374,1.68,15415408.0,
0.0425,10.0,0.17,0.011435508728027344,0.17,19985.0,1.7,-0.7751163482666016,1.7,15422602.0,
0.043,10.0,0.172,0.010300254821777344,0.172,18001.0,1.72,-0.7706113815307617,1.72,15430475.0,
0.0435,10.0,0.174,0.001812744140625,0.174,3168.0,1.74,-0.7661516189575195,1.74,15438269.0,
0.044,10.0,0.176,-0.004634284973144531,0.176,16769117.0,1.76,-0.7613296508789062,1.76,15446696.0,
0.0445,10.0,0.178,-0.0038440704345703122,0.178,16770498.0,1.78,-0.7575588226318359,1.78,15453286.0,
0.045,10.0,0.18,0.006396102905273438,0.18,11178.0,1.8,-0.756404685974121,1.8,15455303.0,
0.0455,10.0,0.182,0.01104583740234375,0.182,19304.0,1.82,-0.7591300964355469,1.82,15450540.0,
0.046,10.0,0.184,0.005317497253417969,0.184,9293.0,1.84,-0.7640321731567382,1.84,15441973.0,
0.0465,10.0,0.186,-0.002593231201171875,0.186,16772684.0,1.86,-0.7688947677612304,1.86,15433475.0,
0.047,10.0,0.188,-0.005138397216796875,0.188,16768236.0,1.88,-0.7732887268066406,1.88,15425796.0,
0.0475,10.0,0.19,-0.011953353881835938,0.19,16756326.0,1.9,-0.7768667221069335,1.9,15419543.0,
0.048,10.0,0.192,-0.016216850280761717,0.192,16748875.0,1.92,-0.7789752960205077,1.92,15415858.0,
0.0485,10.0,0.194,-0.017511749267578123,0.194,16746612.0,1.94,-0.7794530868530273,1.94,15415023.0,
0.049,10.0,0.196,-0.0044002532958984375,0.196,16769526.0,1.96,-0.7789884567260742,1.96,15415835.0,
0.0495,10.0,0.198,0.003919029235839843,0.198,6849.0,1.98,-0.77728271484375,1.98,15418816.0,
0.05,10.0,0.2,0.006694221496582031,0.2,11699.0,2.0,-0.7745126724243164,2.0,15423657.0,
0.0505,10.0,0.202,0.0027408599853515625,0.202,4790.0,2.02,-0.7714118957519531,2.02,15429076.0,
0.051,10.0,0.204,0.0011518478393554687,0.204,2013.0,2.04,-0.7688982009887695,2.04,15433469.0,
0.0515,10.0,0.206,-0.0009922027587890624,0.206,16775482.0,2.06,-0.7671083450317383,2.06,15436597.0,
0.052,10.0,0.208,-0.008762168884277343,0.208,16761903.0,2.08,-0.7658758163452148,2.08,15438751.0,
0.0525,10.0,0.21,-0.013395881652832032,0.21,16753805.0,2.1,-0.7646907806396485,2.1,15440822.0,
0.053,10.0,0.212,-0.006478500366210937,0.212,16765894.0,2.12,-0.763722038269043,2.12,15442515.0,
0.0535,10.0,0.214,0.0036237716674804685,0.214,6333.0,2.14,-0.7624414443969726,2.14,15444753.0,
0.054,10.0,0.216,0.008658599853515624,0.216,15132.0,2.16,-0.7604118347167969,2.16,15448300.0,
0.0545,10.0,0.218,0.005468559265136719,0.218,9557.0,2.18,-0.7578672409057617,2.18,15452747.0,
0.055,10.0,0.22,0.002340888977050781,0.22,4091.0,2.2,-0.7549816131591797,2.2,15457790.0,
0.0555,10.0,0.222,-0.0007822036743164062,0.222,16775849.0,2.22,-0.7514081954956054,2.22,15464035.0,
0.056,10.0,0.224,-0.006540870666503906,0.224,16765785.0,2.24,-0.7473850250244141,2.24,15471066.0,
0.0565,10.0,0.226,-0.011640357971191406,0.226,16756873.0,2.26,-0.7432737350463867,2.26,15478251.0,
0.057,10.0,0.228,-0.009922027587890625,0.228,16759876.0,2.28,-0.739126968383789,2.28,15485498.0,
0.0575,10.0,0.23,0.0012617111206054688,0.23,2205.0,2.3,-0.7350648880004883,2.3,15492597.0,
0.058,10.0,0.232,0.008926963806152344,0.232,15601.0,2.32,-0.7307825088500977,2.32,15500081.0,
0.0585,10.0,0.234,0.006879043579101562,0.234,12022.0,2.34,-0.7263553619384765,2.34,15507818.0,
0.059,10.0,0.236,0.0027969360351562497,0.236,4888.0,2.36,-0.7216947555541992,2.36,15515963.0,
0.0595,10.0,0.238,0.0022144317626953125,0.238,3870.0,2.38,-0.7171743392944335,2.38,15523863.0,
0.06,10.0,0.24,-0.003962516784667969,0.24,16770291.0,2.4,-0.7127494812011719,2.4,15531596.0,
0.0605,10.0,0.242,-0.009683990478515625,0.242,16760292.0,2.42,-0.7077615737915038,2.42,15540313.0,
0.061,10.0,0.244,-0.011709022521972656,0.244,16756753.0,2.44,-0.7033533096313477,2.44,15548017.0,
0.0615,10.0,0.246,-0.0010894775390624999,0.246,16775312.0,2.46,-0.699557876586914,2.46,15554650.0,
0.062,10.0,0.248,0.008405113220214843,0.248,14689.0,2.48,-0.6981285095214843,2.48,15557148.0,
0.0625,10.0,0.25,0.009786415100097656,0.25,17103.0,2.5,-0.6995132446289062,2.5,15554728.0,
0.063,10.0,0.252,0.0037038803100585935,0.252,6473.0,2.52,-0.702337646484375,2.52,15549792.0,
0.0635,10.0,0.254,0.0020645141601562497,0.254,3608.0,2.54,-0.7051082611083984,2.54,15544950.0,
0.064,10.0,0.256,-0.0009441375732421875,0.256,16775566.0,2.56,-0.7073873519897461,2.56,15540967.0,
0.0645,10.0,0.258,-0.00812530517578125,0.258,16763016.0,2.58,-0.7090438842773438,2.58,15538072.0,
0.065,10.0,0.26,-0.011402320861816405,0.26,16757289.0,2.6,-0.7094438552856445,2.6,15537373.0,
0.0655,10.0,0.262,-0.005215644836425781,0.262,16768101.0,2.62,-0.7088916778564452,2.62,15538338.0,
0.066,10.0,0.264,0.005229949951171875,0.264,9140.0,2.64,-0.7072174072265625,2.64,15541264.0,
0.0665,10.0,0.266,0.009799003601074219,0.266,17125.0,2.66,-0.7044679641723632,2.66,15546069.0,
0.067,10.0,0.268,0.005101203918457031,0.268,8915.0,2.68,-0.7010650634765625,2.68,15552016.0,
0.0675,10.0,0.27,0.002613258361816406,0.27,4567.0,2.7,-0.697697639465332,2.7,15557901.0,
0.068,10.0,0.272,0.001480865478515625,0.272,2588.0,2.72,-0.6942014694213867,2.72,15564011.0,
0.0685,10.0,0.274,-0.005359840393066406,0.274,16767849.0,2.74,-0.6918972015380859,2.74,15568038.0,
0.069,10.0,0.276,-0.010161781311035156,0.276,16759457.0,2.76,-0.6895442962646484,2.76,15572150.0,
0.0695,10.0,0.278,-0.007296180725097656,0.278,16764465.0,2.78,-0.6873561859130859,2.78,15575974.0,
0.07,10.0,0.28,0.004063224792480468,0.28,7101.0,2.8,-0.6850118637084961,2.8,15580071.0,
0.0705,10.0,0.282,0.010667037963867186,0.282,18642.0,2.82,-0.6824495315551757,2.82,15584549.0,
0.071,10.0,0.284,0.008790206909179686,0.284,15362.0,2.84,-0.6794540405273437,2.84,15589784.0,
0.0715,10.0,0.286,0.004119873046875,0.286,7200.0,2.86,-0.6763074874877929,2.86,15595283.0,
0.072,10.0,0.288,0.003255271911621094,0.288,5689.0,2.88,-0.6728078842163085,2.88,15601399.0,
0.0725,10.0,0.29,-0.002867889404296875,0.29,16772204.0,2.9,-0.6689220428466797,2.9,15608190.0,
0.073,10.0,0.292,-0.007640647888183593,0.292,16763863.0,2.92,-0.6648107528686523,2.92,15615375.0,
0.0735,10.0,0.294,-0.008744430541992186,0.294,16761934.0,2.94,-0.6604328155517578,2.94,15623026.0,
0.074,10.0,0.296,0.0015489578247070313,0.296,2707.0,2.96,-0.6560102462768554,2.96,15630755.0,
0.0745,10.0,0.298,0.009423637390136718,0.298,16469.0,2.98,-0.6516357421875,2.98,15638400.0,
0.075,10.0,0.3,0.010941696166992186,0.3,19122.0,3.0,-0.6475027084350585,3.0,15645623.0,
0.0755,10.0,0.302,0.0042858123779296875,0.302,7490.0,3.02,-0.6429296493530273,3.02,15653615.0,
0.076,10.0,0.304,0.002753448486328125,0.304,4812.0,3.04,-0.6382232666015625,3.04,15661840.0,
0.0765,10.0,0.306,-0.0011243820190429688,0.306,16775251.0,3.06,-0.6334842681884766,3.06,15670122.0,
0.077,10.0,0.308,-0.008410835266113281,0.308,16762517.0,3.08,-0.6286342620849609,3.08,15678598.0,
0.0775,10.0,0.31,-0.012193107604980468,0.31,16755907.0,3.1,-0.6243078231811523,3.1,15686159.0,
0.078,10.0,0.312,-0.005805587768554687,0.312,16767070.0,3.12,-0.6198772430419922,3.12,15693902.0,
0.0785,10.0,0.314,0.0026773452758789063,0.314,4679.0,3.14,-0.6160200119018554,3.14,15700643.0,
0.079,10.0,0.316,0.007195472717285156,0.316,12575.0,3.16,-0.614549446105957,3.16,15703213.0,
0.0795,10.0,0.318,0.0046405792236328125,0.318,8110.0,3.18,-0.6162185668945312,3.18,15700296.0,
0.08,10.0,0.32,0.0008131027221679688,0.32,1421.0,3.2,-0.6191213607788085,3.2,15695223.0,
0.0805,10.0,0.322,-0.0005842208862304688,0.322,16776195.0,3.22,-0.6221895217895508,3.22,15689861.0,
0.081,10.0,0.324,-0.007615470886230468,0.324,16763907.0,3.24,-0.624609375,3.24,15685632.0,
0.0815,10.0,0.326,-0.013149261474609375,0.326,16754236.0,3.26,-0.6265748977661133,3.26,15682197.0,
0.082,10.0,0.328,-0.010205268859863281,0.328,16759381.0,3.28,-0.6271923065185546,3.28,15681118.0,
0.0825,10.0,0.33,0.001609039306640625,0.33,2812.0,3.3,-0.6269268035888672,3.3,15681582.0,
0.083,10.0,0.332,0.008342170715332031,0.332,14579.0,3.32,-0.625517463684082,3.32,15684045.0,
0.0835,10.0,0.334,0.006581497192382812,0.334,11502.0,3.34,-0.6233379364013671,3.34,15687854.0,
0.084,10.0,0.336,0.0016530990600585936,0.336,2889.0,3.36,-0.6202754974365234,3.36,15693206.0,
0.0845,10.0,0.338,0.0005945205688476562,0.338,1039.0,3.38,-0.6173772811889648,3.38,15698271.0,
0.085,10.0,0.34,-0.005815887451171875,0.34,16767052.0,3.4,-0.6147211074829101,3.4,15702913.0,
0.0855,10.0,0.342,-0.011281013488769531,0.342,16757501.0,3.42,-0.6123968124389648,3.42,15706975.0,
0.086,10.0,0.344,-0.012728118896484375,0.344,16754972.0,3.44,-0.610667610168457,3.44,15709997.0,
0.0865,10.0,0.346,-0.0019460678100585937,0.346,16773815.0,3.46,-0.6089836120605469,3.46,15712940.0,
0.087,10.0,0.348,0.006602096557617188,0.348,11538.0,3.48,-0.6071634292602539,3.48,15716121.0,
0.0875,10.0,0.35,0.007681846618652344,0.35,13425.0,3.5,-0.6055046081542969,3.5,15719020.0,
0.088,10.0,0.352,0.002533149719238281,0.352,4427.0,3.52,-0.6031728744506836,3.52,15723095.0,
0.0885,10.0,0.354,0.0009395599365234374,0.354,1642.0,3.54,-0.600432014465332,3.54,15727885.0,
0.089,10.0,0.356,-0.0023214340209960936,0.356,16773159.0,3.56,-0.5973838806152344,3.56,15733212.0,
0.0895,10.0,0.358,-0.0093017578125,0.358,16760960.0,3.58,-0.5936559677124024,3.58,15739727.0,
0.09,10.0,0.36,-0.012128448486328125,0.36,16756020.0,3.6,-0.5898519515991211,3.6,15746375.0,
0.0905,10.0,0.362,-0.005561256408691406,0.362,16767497.0,3.62,-0.5857549667358398,3.62,15753535.0,
0.091,10.0,0.364,0.004642868041992187,0.364,8114.0,3.64,-0.5816728591918945,3.64,15760669.0,
0.0915,10.0,0.366,0.009072303771972656,0.366,15855.0,3.66,-0.5777544021606446,3.66,15767517.0,
0.092,10.0,0.368,0.003956222534179687,0.368,6914.0,3.68,-0.5733633041381836,3.68,15775191.0,
0.0925,10.0,0.37,0.00019855499267578124,0.37,347.0,3.7,-0.5687788009643554,3.7,15783203.0,
0.093,10.0,0.372,-0.00118560791015625,0.372,16775144.0,3.72,-0.5643848419189453,3.72,15790882.0,
0.0935,10.0,0.374,-0.007474136352539062,0.374,16764154.0,3.74,-0.5602535247802735,3.74,15798102.0,
0.094,10.0,0.376,-0.012805366516113281,0.376,16754837.0,3.76,-0.5559207916259765,3.76,15805674.0,
0.0945,10.0,0.378,-0.009453964233398436,0.378,16760694.0,3.78,-0.5516138076782227,3.78,15813201.0,
0.095,10.0,0.38,0.0017875671386718749,0.38,3124.0,3.8,-0.5473434448242187,3.8,15820664.0,
0.0955,10.0,0.382,0.009020805358886719,0.382,15765.0,3.82,-0.543980598449707,3.82,15826541.0,
0.096,10.0,0.384,0.007010078430175781,0.384,12251.0,3.84,-0.5434221267700196,3.84,15827517.0,
0.0965,10.0,0.386,0.004327011108398437,0.386,7562.0,3.86,-0.5446861267089843,3.86,15825308.0,
0.097,10.0,0.388,0.0026424407958984372,0.388,4618.0,3.88,-0.5470619201660156,3.88,15821156.0,
0.0975,10.0,0.39,-0.0030315399169921872,0.39,16771918.0,3.9,-0.5494714736938476,3.9,15816945.0,
0.098,10.0,0.392,-0.00828723907470703,0.392,16762733.0,3.92,-0.5509620666503906,3.92,15814340.0,
0.0985,10.0,0.394,-0.009403610229492187,0.394,16760782.0,3.94,-0.5516040802001952,3.94,15813218.0,
0.099,10.0,0.396,0.001842498779296875,0.396,3220.0,3.96,-0.551205825805664,3.96,15813914.0,
0.0995,10.0,0.398,0.009127807617187499,0.398,15952.0,3.98,-0.5501152038574219,3.98,15815820.0,
0.1,10.0,0.4,0.00990142822265625,0.4,17304.0,4.0,-0.5480798721313477,4.0,15819377.0,
0.1005,10.0,0.402,0.0035488128662109373,0.402,6202.0,4.02,-0.5453842163085937,4.02,15824088.0,
0.101,10.0,0.404,0.002042198181152344,0.404,3569.0,4.04,-0.5424774169921874,4.04,15829168.0,
0.1015,10.0,0.406,-0.002487373352050781,0.406,16772869.0,4.06,-0.5395751953125,4.06,15834240.0,
0.102,10.0,0.408,-0.0090545654296875,0.408,16761392.0,4.08,-0.536985969543457,4.08,15838765.0,
0.1025,10.0,0.41,-0.012781333923339843,0.41,16754879.0,4.1,-0.5344779968261718,4.1,15843148.0,
0.103,10.0,0.412,-0.004710960388183594,0.412,16768983.0,4.12,-0.5327156066894531,4.12,15846228.0,
0.1035,10.0,0.414,0.004418563842773437,0.414,7722.0,4.14,-0.5309732437133788,4.14,15849273.0,
0.104,10.0,0.416,0.007733345031738281,0.416,13515.0,4.16,-0.5291994094848632,4.16,15852373.0,
0.1045,10.0,0.418,0.0029926300048828125,0.418,5230.0,4.18,-0.5269048690795898,4.18,15856383.0,
0.105,10.0,0.42,-0.0014888763427734375,0.42,16774614.0,4.2,-0.5245170593261719,4.2,15860556.0,
0.1055,10.0,0.422,-0.002198982238769531,0.422,16773373.0,4.22,-0.5216314315795898,4.22,15865599.0,
0.106,10.0,0.424,-0.009162712097167968,0.424,16761203.0,4.24,-0.5186239242553711,4.24,15870855.0,
0.1065,10.0,0.426,-0.01518115997314453,0.426,16750685.0,4.26,-0.5153039932250977,4.26,15876657.0,
0.107,10.0,0.428,-0.011666107177734374,0.428,16756828.0,4.28,-0.5122175216674805,4.28,15882051.0,
0.1075,10.0,0.43,0.00020084381103515624,0.43,351.0,4.3,-0.5086143493652343,4.3,15888348.0,
0.108,10.0,0.432,0.006287384033203125,0.432,10988.0,4.32,-0.5048458099365234,4.32,15894934.0,
0.1085,10.0,0.434,0.00336456298828125,0.434,5880.0,4.34,-0.5009834289550781,4.34,15901684.0,
0.109,10.0,0.436,-0.0010660171508789062,0.436,16775353.0,4.36,-0.4969888687133789,4.36,15908665.0,
0.1095,10.0,0.438,-0.0021205902099609374,0.438,16773510.0,4.38,-0.4930904388427734,4.38,15915478.0,
0.11,10.0,0.44,-0.008796501159667968,0.44,16761843.0,4.4,-0.48903293609619136,4.4,15922569.0,
0.1105,10.0,0.442,-0.01348285675048828,0.442,16753653.0,4.42,-0.4846973419189453,4.42,15930146.0,
0.111,10.0,0.444,-0.015566825866699219,0.444,16750011.0,4.44,-0.4807851791381836,4.44,15936983.0,
0.1115,10.0,0.446,-0.004997062683105469,0.446,16768483.0,4.46,-0.4767482757568359,4.46,15944038.0,
0.112,10.0,0.448,0.002633857727050781,0.448,4603.0,4.48,-0.4738237380981445,4.48,15949149.0,
0.1125,10.0,0.45,0.004035186767578125,0.45,7052.0,4.5,-0.47353134155273435,4.5,15949660.0,
0.113,10.0,0.452,-0.0014585494995117186,0.452,16774667.0,4.52,-0.47517929077148435,4.52,15946780.0,
0.1135,10.0,0.454,-0.0034818649291992188,0.454,16771131.0,4.54,-0.4765920639038086,4.54,15944311.0,
0.114,10.0,0.456,-0.006891059875488281,0.456,16765173.0,4.56,-0.47807865142822265,4.56,15941713.0,
0.1145,10.0,0.458,-0.012309837341308593,0.458,16755703.0,4.58,-0.4789466857910156,4.58,15940196.0,
0.115,10.0,0.46,-0.016652870178222656,0.46,16748113.0,4.6,-0.47901020050048826,4.6,15940085.0,
0.1155,10.0,0.462,-0.008933258056640624,0.462,16761604.0,4.62,-0.47851696014404294,4.62,15940947.0,
0.116,10.0,0.464,-0.0007410049438476562,0.464,16775921.0,4.64,-0.4770767211914062,4.64,15943464.0,
0.1165,10.0,0.466,0.0028615951538085937,0.466,5001.0,4.66,-0.47501106262207027,4.66,15947074.0,
0.117,10.0,0.468,-0.0012382507324218749,0.468,16775052.0,4.68,-0.47198925018310545,4.68,15952355.0,
0.1175,10.0,0.47,-0.004216575622558593,0.47,16769847.0,4.7,-0.46892223358154295,4.7,15957715.0,
0.118,10.0,0.472,-0.006168937683105468,0.472,16766435.0,4.72,-0.46557655334472653,4.72,15963562.0,
0.1185,10.0,0.474,-0.0139068603515625,0.474,16752912.0,4.74,-0.462919807434082,4.74,15968205.0,
0.119,10.0,0.476,-0.01875457763671875,0.476,16744440.0,4.76,-0.4604215621948242,4.76,15972571.0,
0.1195,10.0,0.478,-0.015364837646484374,0.478,16750364.0,4.78,-0.45870094299316405,4.78,15975578.0,
0.12,10.0,0.48,-0.003073310852050781,0.48,16771845.0,4.8,-0.45734252929687497,4.8,15977952.0,
0.1205,10.0,0.482,0.0033222198486328124,0.482,5806.0,4.82,-0.45571002960205076,4.82,15980805.0,
0.121,10.0,0.484,0.0006191253662109374,0.484,1082.0,4.84,-0.45370502471923824,4.84,15984309.0,
0.1215,10.0,0.486,-0.0035871505737304684,0.486,16770947.0,4.86,-0.45160388946533203,4.86,15987981.0,
0.122,10.0,0.488,-0.0034761428833007812,0.488,16771141.0,4.88,-0.4492172241210937,4.88,15992152.0,
0.1225,10.0,0.49,-0.011857223510742186,0.49,16756494.0,4.9,-0.44594135284423825,4.9,15997877.0,
0.123,10.0,0.492,-0.015358543395996092,0.492,16750375.0,4.92,-0.44276905059814453,4.92,16003421.0,
0.1235,10.0,0.494,-0.016975593566894532,0.494,16747549.0,4.94,-0.43953895568847656,4.94,16009066.0,
0.124,10.0,0.496,-0.005515480041503906,0.496,16767577.0,4.96,-0.4363300323486328,4.96,16014674.0,
0.1245,10.0,0.498,0.0018218994140624999,0.498,3184.0,4.98,-0.4329803466796875,4.98,16020528.0,
0.125,10.0,0.5,0.0037662506103515623,0.5,6582.0,5.0,-0.4295333862304687,5.0,16026552.0,
0.1255,10.0,0.502,-0.0028638839721679688,0.502,16772211.0,5.02,-0.42621402740478515,5.02,16032353.0,
0.126,10.0,0.504,-0.003091621398925781,0.504,16771813.0,5.04,-0.422453498840332,5.04,16038925.0,
0.1265,10.0,0.506,-0.0075319290161132806,0.506,16764053.0,5.06,-0.41914787292480465,5.06,16044702.0,
0.127,10.0,0.508,-0.01315326690673828,0.508,16754229.0,5.08,-0.4153238296508789,5.08,16051385.0,
0.1275,10.0,0.51,-0.017482566833496093,0.51,16746663.0,5.1,-0.4117097854614258,5.1,16057701.0,
0.128,10.0,0.512,-0.008110427856445312,0.512,16763042.0,5.12,-0.40863990783691406,5.12,16063066.0,
0.1285,10.0,0.514,0.0008188247680664063,0.514,1431.0,5.14,-0.4067682266235351,5.14,16066337.0,
0.129,10.0,0.516,0.004032325744628906,0.516,7047.0,5.16,-0.40765914916992185,5.16,16064780.0,
0.1295,10.0,0.518,0.00024890899658203125,0.518,435.0,5.18,-0.40963897705078123,5.18,16061320.0,
0.13,10.0,0.52,-0.0035602569580078123,0.52,16770994.0,5.2,-0.41192951202392575,5.2,16057317.0,
0.1305,10.0,0.522,-0.0047206878662109375,0.522,16768966.0,5.22,-0.4139253616333008,5.22,16053829.0,
0.131,10.0,0.524,-0.01174335479736328,0.524,16756693.0,5.24,-0.4151853561401367,5.24,16051627.0,
0.1315,10.0,0.526,-0.01609039306640625,0.526,16749096.0,5.26,-0.41540679931640623,5.26,16051240.0,
0.132,10.0,0.528,-0.012261772155761718,0.528,16755787.0,5.28,-0.4146120071411133,5.28,16052629.0,
0.1325,10.0,0.53,-0.000787353515625,0.53,16775840.0,5.3,-0.4135517120361328,5.3,16054482.0,
0.133,10.0,0.532,0.004359626770019531,0.532,7619.0,5.32,-0.4115753173828125,5.32,16057936.0,
0.1335,10.0,0.534,0.002153778076171875,0.534,3764.0,5.34,-0.4088893890380859,5.34,16062630.0,
0.134,10.0,0.536,-0.0013978958129882812,0.536,16774773.0,5.36,-0.4062623977661133,5.36,16067221.0,
0.1345,10.0,0.538,-0.0028581619262695312,0.538,16772221.0,5.38,-0.40413837432861327,5.38,16070933.0,
0.135,10.0,0.54,-0.008057212829589844,0.54,16763135.0,5.4,-0.40221233367919923,5.4,16074299.0,
0.1355,10.0,0.542,-0.01398639678955078,0.542,16752773.0,5.42,-0.40113086700439454,5.42,16076189.0,
0.136,10.0,0.544,-0.014679908752441406,0.544,16751561.0,5.44,-0.3998897552490234,5.44,16078358.0,
0.1365,10.0,0.546,-0.0019924163818359373,0.546,16773734.0,5.46,-0.398997688293457,5.46,16079917.0,
0.137,10.0,0.548,0.006663894653320312,0.548,11646.0,5.48,-0.3979825973510742,5.48,16081691.0,
0.1375,10.0,0.55,0.006569480895996093,0.55,11481.0,5.5,-0.3964874267578125,5.5,16084304.0,
0.138,10.0,0.552,0.0019437789916992186,0.552,3397.0,5.52,-0.39490528106689454,5.52,16087069.0,
0.1385,10.0,0.554,0.003751373291015625,0.554,6556.0,5.54,-0.392999267578125,5.54,16090400.0,
0.139,10.0,0.556,9.384155273437499e-05,0.556,164.0,5.56,-0.3908048629760742,5.56,16094235.0,
0.1395,10.0,0.558,-0.010823822021484375,0.558,16758300.0,5.58,-0.3884576797485351,5.58,16098337.0,
0.14,10.0,0.56,-0.015521621704101561,0.56,16750090.0,5.6,-0.3858003616333008,5.6,16102981.0,
0.1405,10.0,0.562,-0.006103134155273437,0.562,16766550.0,5.62,-0.38321971893310547,5.62,16107491.0,
0.141,10.0,0.564,0.0017200469970703124,0.564,3006.0,5.64,-0.3802150726318359,5.64,16112742.0,
0.1415,10.0,0.566,0.005141830444335937,0.566,8986.0,5.66,-0.3773477554321289,5.66,16117753.0,
0.142,10.0,0.568,0.0006305694580078124,0.568,1102.0,5.68,-0.3743133544921875,5.68,16123056.0,
0.1425,10.0,0.57,-0.0022476196289062497,0.57,16773288.0,5.7,-0.3713991165161133,5.7,16128149.0,
0.143,10.0,0.572,-0.002895355224609375,0.572,16772156.0,5.72,-0.3684019088745117,5.72,16133387.0,
0.1435,10.0,0.574,-0.0085968017578125,0.574,16762192.0,5.74,-0.36537952423095704,5.74,16138669.0,
0.144,10.0,0.576,-0.01598224639892578,0.576,16749285.0,5.76,-0.362226676940918,5.76,16144179.0,
0.1445,10.0,0.578,-0.0119110107421875,0.578,16756400.0,5.78,-0.3604459762573242,5.78,16147291.0,
0.145,10.0,0.58,0.007276725769042969,0.58,12717.0,5.8,-0.3609964370727539,5.8,16146329.0,
0.1455,10.0,0.582,0.012793922424316406,0.582,22359.0,5.82,-0.3630191802978516,5.82,16142794.0,
0.146,10.0,0.584,0.004562759399414062,0.584,7974.0,5.84,-0.36575832366943356,5.84,16138007.0,
0.1465,10.0,0.586,-0.0005258560180664062,0.586,16776297.0,5.86,-0.36768035888671874,5.86,16134648.0,
0.147,10.0,0.588,-0.0019615173339843747,0.588,16773788.0,5.88,-0.3693878173828125,5.88,16131664.0,
0.1475,10.0,0.59,-0.008782768249511718,0.59,16761867.0,5.9,-0.37018890380859376,5.9,16130264.0,
0.148,10.0,0.592,-0.013120651245117188,0.592,16754286.0,5.92,-0.3705144882202148,5.92,16129695.0,
0.1485,10.0,0.594,-0.015954208374023438,0.594,16749334.0,5.94,-0.36983070373535154,5.94,16130890.0,
0.149,10.0,0.596,-0.0034824371337890624,0.596,16771130.0,5.96,-0.36887226104736326,5.96,16132565.0,
0.1495,10.0,0.598,0.004113578796386718,0.598,7189.0,5.98,-0.36697998046874997,5.98,16135872.0,
0.15,10.0,0.6,0.004558753967285156,0.6,7967.0,6.0,-0.36481876373291017,6.0,16139649.0,
0.1505,10.0,0.602,-0.0007593154907226562,0.602,16775889.0,6.02,-0.36333560943603516,6.02,16142241.0,
0.151,10.0,0.604,-0.0025108337402343747,0.604,16772828.0,6.04,-0.36168651580810546,6.04,16145123.0,
0.1515,10.0,0.606,-0.0072269439697265625,0.606,16764586.0,6.06,-0.3608556747436523,6.06,16146575.0,
0.152,10.0,0.608,-0.011984825134277344,0.608,16756271.0,6.08,-0.3599086761474609,6.08,16148230.0,
0.1525,10.0,0.61,-0.017504310607910155,0.61,16746625.0,6.1,-0.3593284606933594,6.1,16149244.0,
0.153,10.0,0.612,-0.007304191589355469,0.612,16764451.0,6.12,-0.35887699127197265,6.12,16150033.0,
0.1535,10.0,0.614,0.0013360977172851562,0.614,2335.0,6.14,-0.35780696868896483,6.14,16151903.0,
0.154,10.0,0.616,0.005402183532714843,0.616,9441.0,6.16,-0.35711917877197263,6.16,16153105.0,
0.1545,10.0,0.618,-0.0006963729858398437,0.618,16775999.0,6.18,-0.3554105758666992,6.18,16156091.0,
0.155,10.0,0.62,-0.00361175537109375,0.62,16770904.0,6.2,-0.3537752151489258,6.2,16158949.0,
0.1555,10.0,0.622,-0.0044265747070312495,0.622,16769480.0,6.22,-0.35170726776123046,6.22,16162563.0,
0.156,10.0,0.624,-0.011484146118164062,0.624,16757146.0,6.24,-0.34940528869628906,6.24,16166586.0,
0.1565,10.0,0.626,-0.016516685485839844,0.626,16748351.0,6.26,-0.34694766998291016,6.26,16170881.0,
0.157,10.0,0.628,-0.011753082275390625,0.628,16756676.0,6.28,-0.34472980499267575,6.28,16174757.0,
0.1575,10.0,0.63,-0.0008869171142578125,0.63,16775666.0,6.3,-0.34218807220458985,6.3,16179199.0,
0.158,10.0,0.632,0.005272293090820312,0.632,9214.0,6.32,-0.3397224426269531,6.32,16183508.0,
0.1585,10.0,0.634,0.001897430419921875,0.634,3316.0,6.34,-0.3372344970703125,6.34,16187856.0,
0.159,10.0,0.636,-0.0014768600463867187,0.636,16774635.0,6.36,-0.3343929290771484,6.36,16192822.0,
0.1595,10.0,0.638,-0.003508758544921875,0.638,16771084.0,6.38,-0.3317768096923828,6.38,16197394.0,
0.16,10.0,0.64,-0.008965301513671874,0.64,16761548.0,6.4,-0.32975292205810547,6.4,16200931.0,
0.1605,10.0,0.642,-0.014356040954589843,0.642,16752127.0,6.42,-0.32958526611328126,6.42,16201224.0,
0.161,10.0,0.644,-0.015210914611816406,0.644,16750633.0,6.44,-0.331340217590332,6.44,16198157.0,
0.1615,10.0,0.646,-0.004113006591796875,0.646,16770028.0,6.46,-0.3343053817749023,6.46,16192975.0,
0.162,10.0,0.648,0.00397796630859375,0.648,6952.0,6.48,-0.3370920181274414,6.48,16188105.0,
0.1625,10.0,0.65,0.0035636901855468747,0.65,6228.0,6.5,-0.33969726562499997,6.5,16183552.0,
0.163,10.0,0.652,-0.0012033462524414062,0.652,16775113.0,6.52,-0.341594123840332,6.52,16180237.0,
0.1635,10.0,0.654,-0.00305328369140625,0.654,16771880.0,6.54,-0.34295082092285156,6.54,16177866.0,
0.164,10.0,0.656,-0.007155990600585937,0.656,16764710.0,6.56,-0.34311676025390625,6.56,16177576.0,
0.1645,10.0,0.658,-0.011876106262207031,0.658,16756461.0,6.58,-0.34261608123779297,6.58,16178451.0,
0.165,10.0,0.66,-0.015874671936035156,0.66,16749473.0,6.6,-0.3410064697265625,6.6,16181264.0,
0.1655,10.0,0.662,-0.006844139099121093,0.662,16765255.0,6.62,-0.33919429779052734,6.62,16184431.0,
0.166,10.0,0.664,0.0014820098876953125,0.664,2590.0,6.64,-0.33761844635009763,6.64,16187185.0,
0.1665,10.0,0.666,0.005205345153808594,0.666,9097.0,6.66,-0.3365427017211914,6.66,16189065.0,
0.167,10.0,0.668,0.001302337646484375,0.668,2276.0,6.68,-0.33594303131103515,6.68,16190113.0,
0.1675,10.0,0.67,-0.0022733688354492185,0.67,16773243.0,6.7,-0.3353227615356445,6.7,16191197.0,
0.168,10.0,0.672,-0.003709602355957031,0.672,16770733.0,6.72,-0.3348546981811523,6.72,16192015.0,
0.1685,10.0,0.674,-0.011115646362304688,0.674,16757790.0,6.74,-0.3346813201904297,6.74,16192318.0,
0.169,10.0,0.676,-0.015443229675292968,0.676,16750227.0,6.76,-0.3342121124267578,6.76,16193138.0,
0.1695,10.0,0.678,-0.010288810729980469,0.678,16759235.0,6.78,-0.3335975646972656,6.78,16194212.0,
0.17,10.0,0.68,0.0004657745361328125,0.68,814.0,6.8,-0.33281822204589845,6.8,16195574.0,
0.1705,10.0,0.682,0.005823898315429688,0.682,10178.0,6.82,-0.3315410614013672,6.82,16197806.0,
0.171,10.0,0.684,0.0030298233032226562,0.684,5295.0,6.84,-0.33033885955810544,6.84,16199907.0,
0.1715,10.0,0.686,-0.0009263992309570312,0.686,16775597.0,6.86,-0.3287212371826172,6.86,16202734.0,
0.172,10.0,0.688,-0.002288818359375,0.688,16773216.0,6.88,-0.3272346496582031,6.88,16205332.0,
0.1725,10.0,0.69,-0.008190536499023437,0.69,16762902.0,6.9,-0.3252513885498047,6.9,16208798.0,
0.173,10.0,0.692,-0.012417984008789061,0.692,16755514.0,6.92,-0.32335338592529295,6.92,16212115.0,
0.1735,10.0,0.694,-0.014050483703613281,0.694,16752661.0,6.94,-0.32123737335205077,6.94,16215813.0,
0.174,10.0,0.696,-0.002432441711425781,0.696,16772965.0,6.96,-0.3188919067382812,6.96,16219912.0,
0.1745,10.0,0.698,0.005287742614746093,0.698,9241.0,6.98,-0.31659164428710934,6.98,16223932.0,
0.175,10.0,0.7,0.005218505859375,0.7,9120.0,7.0,-0.31421241760253904,7.0,16228090.0,
0.1755,10.0,0.702,0.00035762786865234375,0.702,625.0,7.02,-0.31267719268798827,7.02,16230773.0,
0.176,10.0,0.704,-0.00040283203125,0.704,16776512.0,7.04,-0.3126777648925781,7.04,16230772.0,
0.1765,10.0,0.706,-0.004804801940917969,0.706,16768819.0,7.06,-0.3147926330566406,7.06,16227076.0,
0.177,10.0,0.708,-0.01131134033203125,0.708,16757448.0,7.08,-0.31787853240966796,7.08,16221683.0,
0.1775,10.0,0.71,-0.014875602722167968,0.71,16751219.0,7.1,-0.32109718322753905,7.1,16216058.0,
0.178,10.0,0.712,-0.00449066162109375,0.712,16769368.0,7.12,-0.324140739440918,7.12,16210739.0,
0.1785,10.0,0.714,0.0031059265136718747,0.714,5428.0,7.14,-0.3262796401977539,7.14,16207001.0,
0.179,10.0,0.716,0.008463478088378907,0.716,14791.0,7.16,-0.32804031372070314,7.16,16203924.0,
0.1795,10.0,0.718,0.0012926101684570311,0.718,2259.0,7.18,-0.3288991928100586,7.18,16202423.0,
0.18,10.0,0.72,-0.0004423141479492187,0.72,16776443.0,7.2,-0.3288591384887695,7.2,16202493.0,
0.1805,10.0,0.722,-0.0014551162719726562,0.722,16774673.0,7.22,-0.3281982421875,7.22,16203648.0,
0.181,10.0,0.724,-0.009790420532226562,0.724,16760106.0,7.24,-0.32697372436523436,7.24,16205788.0,
0.1815,10.0,0.726,-0.012285232543945312,0.726,16755746.0,7.26,-0.32599353790283203,7.26,16207501.0,
0.182,10.0,0.728,-0.008879470825195312,0.728,16761698.0,7.28,-0.32535381317138673,7.28,16208619.0,
0.1825,10.0,0.73,0.0028181076049804688,0.73,4925.0,7.3,-0.32543392181396485,7.3,16208479.0,
0.183,10.0,0.732,0.007732200622558593,0.732,13513.0,7.32,-0.3259145736694336,7.32,16207639.0,
0.1835,10.0,0.734,0.004821395874023437,0.734,8426.0,7.34,-0.32643985748291016,7.34,16206721.0,
0.184,10.0,0.736,0.0015077590942382812,0.736,2635.0,7.36,-0.3271064758300781,7.36,16205556.0,
0.1845,10.0,0.738,0.0019712448120117188,0.738,3445.0,7.38,-0.32760944366455075,7.38,16204677.0,
0.185,10.0,0.74,-0.005190467834472656,0.74,16768145.0,7.4,-0.32752132415771484,7.4,16204831.0,
0.1855,10.0,0.742,-0.010386657714843749,0.742,16759064.0,7.42,-0.32754878997802733,7.42,16204783.0,
0.186,10.0,0.744,-0.010617828369140625,0.744,16758660.0,7.44,-0.32692394256591795,7.44,16205875.0,
0.1865,10.0,0.746,0.0016880035400390625,0.746,2950.0,7.46,-0.3261892318725586,7.46,16207159.0,
0.187,10.0,0.748,0.008136749267578125,0.748,14220.0,7.48,-0.3250539779663086,7.48,16209143.0,
0.1875,10.0,0.75,0.008445167541503906,0.75,14759.0,7.5,-0.32405662536621094,7.5,16210886.0,
0.188,10.0,0.752,0.003725624084472656,0.752,6511.0,7.52,-0.32265186309814453,7.52,16213341.0,
0.1885,10.0,0.754,0.0026699066162109374,0.754,4666.0,7.54,-0.3213369369506836,7.54,16215639.0,
0.189,10.0,0.756,-0.0025617599487304686,0.756,16772739.0,7.56,-0.31982059478759767,7.56,16218289.0,
0.1895,10.0,0.758,-0.008591651916503906,0.758,16762201.0,7.58,-0.31830482482910155,7.58,16220938.0,
0.19,10.0,0.76,-0.012158203125,0.76,16755968.0,7.6,-0.31677818298339844,7.6,16223606.0,
0.1905,10.0,0.762,-0.0023900985717773436,0.762,16773039.0,7.62,-0.31624603271484375,7.62,16224536.0,
0.191,10.0,0.764,0.005925178527832031,0.764,10355.0,7.64,-0.31746425628662106,7.64,16222407.0,
0.1915,10.0,0.766,0.00897216796875,0.766,15680.0,7.66,-0.3210262298583984,7.66,16216182.0,
0.192,10.0,0.768,0.0015243530273437499,0.768,2664.0,7.68,-0.3258201599121094,7.68,16207804.0,
0.1925,10.0,0.77,-0.0002964019775390625,0.77,16776698.0,7.7,-0.3304258346557617,7.7,16199755.0,
0.193,10.0,0.772,-0.0019317626953125,0.772,16773840.0,7.72,-0.3345663070678711,7.72,16192519.0,
0.1935,10.0,0.774,-0.008682632446289062,0.774,16762042.0,7.74,-0.3382129669189453,7.74,16186146.0,
0.194,10.0,0.776,-0.0142364501953125,0.776,16752336.0,7.76,-0.3408966064453125,7.76,16181456.0,
0.1945,10.0,0.778,-0.009625625610351561,0.778,16760394.0,7.78,-0.3427270889282226,7.78,16178257.0,
0.195,10.0,0.78,0.0017154693603515625,0.78,2998.0,7.8,-0.34368438720703126,7.8,16176584.0,
0.1955,10.0,0.782,0.007970809936523438,0.782,13930.0,7.82,-0.34371986389160153,7.82,16176522.0,
0.196,10.0,0.784,0.004257774353027343,0.784,7441.0,7.84,-0.3435195922851562,7.84,16176872.0,
0.1965,10.0,0.786,0.0005893707275390625,0.786,1030.0,7.86,-0.343351936340332,7.86,16177165.0,
0.197,10.0,0.788,-0.0011564254760742187,0.788,16775195.0,7.88,-0.3438566207885742,7.88,16176283.0,
0.1975,10.0,0.79,-0.00752105712890625,0.79,16764072.0,7.9,-0.34482364654541015,7.9,16174593.0,
0.198,10.0,0.792,-0.012388801574707032,0.792,16755565.0,7.92,-0.3463119506835937,7.92,16171992.0,
0.1985,10.0,0.794,-0.011980819702148437,0.794,16756278.0,7.94,-0.34804515838623046,7.94,16168963.0,
0.199,10.0,0.796,-0.000748443603515625,0.796,16775908.0,7.96,-0.3495380401611328,7.96,16166354.0,
0.1995,10.0,0.798,0.007674980163574218,0.798,13413.0,7.98,-0.35070018768310546,7.98,16164323.0,
0.2,10.0,0.8,0.007098197937011719,0.8,12405.0,8.0,-0.35131187438964845,8.0,16163254.0,
0.2005,10.0,0.802,0.0018087387084960937,0.802,3161.0,8.02,-0.3520139694213867,8.02,16162027.0,
0.201,10.0,0.804,-0.00018253326416015626,0.804,16776897.0,8.04,-0.35191497802734373,8.04,16162200.0,
0.2015,10.0,0.806,-0.004730987548828125,0.806,16768948.0,8.06,-0.351698112487793,8.06,16162579.0,
0.202,10.0,0.808,-0.010486793518066405,0.808,16758889.0,8.08,-0.35154018402099607,8.08,16162855.0,
0.2025,10.0,0.81,-0.013825035095214844,0.81,16753055.0,8.1,-0.3505279541015625,8.1,16164624.0,
0.203,10.0,0.812,-0.003570556640625,0.812,16770976.0,8.12,-0.34989967346191403,8.12,16165722.0,
0.2035,10.0,0.814,0.005002784729003906,0.814,8743.0,8.14,-0.3491649627685547,8.14,16167006.0,
0.204,10.0,0.816,0.008608245849609375,0.816,15044.0,8.16,-0.3480216979980469,8.16,16169004.0,
0.2045,10.0,0.818,0.0028781890869140625,0.818,5030.0,8.18,-0.34717369079589844,8.18,16170486.0,
0.205,10.0,0.82,-0.00038051605224609375,0.82,16776551.0,8.2,-0.34621238708496094,8.2,16172166.0,
0.2055,10.0,0.822,-0.0011564254760742187,0.822,16775195.0,8.22,-0.34612083435058594,8.22,16172326.0,
0.206,10.0,0.824,-0.008203125,0.824,16762880.0,8.24,-0.3489154815673828,8.24,16167442.0,
0.2065,10.0,0.826,-0.013018226623535157,0.826,16754465.0,8.26,-0.3542804718017578,8.26,16158066.0,
0.207,10.0,0.828,-0.007305908203124999,0.828,16764448.0,8.28,-0.3610977172851562,8.28,16146152.0,
0.2075,10.0,0.83,0.004391670227050781,0.83,7675.0,8.3,-0.3679172515869141,8.3,16134234.0,
0.208,10.0,0.832,0.00878162384033203,0.832,15347.0,8.32,-0.3738687515258789,8.32,16123833.0,
0.2085,10.0,0.834,0.006260490417480468,0.834,10941.0,8.34,-0.3791290283203125,8.34,16114640.0,
0.209,10.0,0.836,0.002061653137207031,0.836,3603.0,8.36,-0.3837730407714844,8.36,16106524.0,
0.2095,10.0,0.838,0.0017698287963867187,0.838,3093.0,8.38,-0.38678112030029294,8.38,16101267.0,
0.21,10.0,0.84,-0.004660606384277344,0.84,16769071.0,8.4,-0.3893743515014648,8.4,16096735.0,
0.2105,10.0,0.842,-0.009254264831542968,0.842,16761043.0,8.42,-0.39060287475585936,8.42,16094588.0,
0.211,10.0,0.844,-0.009348678588867187,0.844,16760878.0,8.44,-0.3918537139892578,8.44,16092402.0,
0.2115,10.0,0.846,0.0026350021362304688,0.846,4605.0,8.46,-0.3932939529418945,8.46,16089885.0,
0.212,10.0,0.848,0.010640716552734375,0.848,18596.0,8.48,-0.39473419189453124,8.48,16087368.0,
0.2125,10.0,0.85,0.0098052978515625,0.85,17136.0,8.5,-0.39682559967041015,8.5,16083713.0,
0.213,10.0,0.852,0.004218864440917969,0.852,7373.0,8.52,-0.3993152618408203,8.52,16079362.0,
0.2135,10.0,0.854,0.004040336608886718,0.854,7061.0,8.54,-0.4016183853149414,8.54,16075337.0,
0.214,10.0,0.856,-0.0008966445922851562,0.856,16775649.0,8.56,-0.40387001037597653,8.56,16071402.0,
0.2145,10.0,0.858,-0.005861091613769531,0.858,16766973.0,8.58,-0.4057044982910156,8.58,16068196.0,
0.215,10.0,0.86,-0.008295249938964843,0.86,16762719.0,8.6,-0.4070714950561523,8.6,16065807.0,
0.2155,10.0,0.862,0.003252410888671875,0.862,5684.0,8.62,-0.4083332061767578,8.62,16063602.0,
0.216,10.0,0.864,0.01229267120361328,0.864,21483.0,8.64,-0.40915145874023434,8.64,16062172.0,
0.2165,10.0,0.866,0.017629623413085938,0.866,30810.0,8.66,-0.4094581604003906,8.66,16061636.0,
0.217,10.0,0.868,0.014356040954589843,0.868,25089.0,8.68,-0.40952110290527344,8.68,16061526.0,
0.2175,10.0,0.87,0.01104583740234375,0.87,19304.0,8.7,-0.4092561721801758,8.7,16061989.0,
0.218,10.0,0.872,0.008040046691894532,0.872,14051.0,8.72,-0.40919837951660154,8.72,16062090.0,
0.2185,10.0,0.874,0.00255889892578125,0.874,4472.0,8.74,-0.4086799621582031,8.74,16062996.0,
0.219,10.0,0.876,-0.00196380615234375,0.876,16773784.0,8.76,-0.4085826873779297,8.76,16063166.0,
0.2195,10.0,0.878,0.002498817443847656,0.878,4367.0,8.78,-0.40761165618896483,8.78,16064863.0,
0.22,10.0,0.88,0.012728691101074219,0.88,22245.0,8.8,-0.40704917907714844,8.8,16065846.0,
0.2205,10.0,0.882,0.016521835327148435,0.882,28874.0,8.82,-0.40645694732666016,8.82,16066881.0,
0.221,10.0,0.884,0.01150360107421875,0.884,20104.0,8.84,-0.40734386444091797,8.84,16065331.0,
0.2215,10.0,0.886,0.0030515670776367185,0.886,5333.0,8.86,-0.4107519149780273,8.86,16059375.0,
0.222,10.0,0.888,-0.0023529052734375,0.888,16773104.0,8.88,-0.416766357421875,8.88,16048864.0,
0.2225,10.0,0.89,-0.011890411376953125,0.89,16756436.0,8.9,-0.42373695373535153,8.9,16036682.0,
0.223,10.0,0.892,-0.018417549133300782,0.892,16745029.0,8.92,-0.43068752288818357,8.92,16024535.0,
0.2235,10.0,0.894,-0.018069076538085937,0.894,16745638.0,8.94,-0.4369068145751953,8.94,16013666.0,
0.224,10.0,0.896,-0.0055789947509765625,0.896,16767466.0,8.96,-0.44220600128173826,8.96,16004405.0,
0.2245,10.0,0.898,0.005310630798339843,0.898,9281.0,8.98,-0.4464597702026367,8.98,15996971.0,
0.225,10.0,0.9,0.004772186279296875,0.9,8340.0,9.0,-0.4496938705444336,9.0,15991319.0,
0.2255,10.0,0.902,7.381439208984374e-05,0.902,129.0,9.02,-0.4521446228027344,9.02,15987036.0,
0.226,10.0,0.904,0.0002849578857421875,0.904,498.0,9.04,-0.4540678024291992,9.04,15983675.0,
0.2265,10.0,0.906,-0.004027175903320313,0.906,16770178.0,9.06,-0.45497760772705076,9.06,15982085.0,
0.227,10.0,0.908,-0.008490943908691406,0.908,16762377.0,9.08,-0.45655975341796873,9.08,15979320.0,
0.2275,10.0,0.91,-0.011104202270507813,0.91,16757810.0,9.1,-0.45857734680175777,9.1,15975794.0,
0.228,10.0,0.912,-0.002340888977050781,0.912,16773125.0,9.12,-0.46112537384033203,9.12,15971341.0,
0.2285,10.0,0.914,0.005188751220703125,0.914,9068.0,9.14,-0.4633306503295898,9.14,15967487.0,
0.229,10.0,0.916,0.00871295928955078,0.916,15227.0,9.16,-0.46607494354248047,9.16,15962691.0,
0.2295,10.0,0.918,0.0033920288085937497,0.918,5928.0,9.18,-0.46812458038330074,9.18,15959109.0,
0.23,10.0,0.92,0.0023311614990234376,0.92,4074.0,9.2,-0.4699230194091797,9.2,15955966.0,
0.2305,10.0,0.922,-0.0011358261108398438,0.922,16775231.0,9.22,-0.47086029052734374,9.22,15954328.0,
0.231,10.0,0.924,-0.007302474975585937,0.924,16764454.0,9.24,-0.4714851379394531,9.24,15953236.0,
0.2315,10.0,0.926,-0.011724472045898438,0.926,16756726.0,9.26,-0.47163848876953124,9.26,15952968.0,
0.232,10.0,0.928,-0.006017875671386719,0.928,16766699.0,9.28,-0.47159042358398434,9.28,15953052.0,
0.2325,10.0,0.93,0.004150772094726562,0.93,7254.0,9.3,-0.4710611343383789,9.3,15953977.0,
0.233,10.0,0.932,0.009387016296386719,0.932,16405.0,9.32,-0.47079677581787105,9.32,15954439.0,
0.2335,10.0,0.934,0.005435371398925781,0.934,9499.0,9.34,-0.47024745941162105,9.34,15955399.0,
0.234,10.0,0.936,0.0020215988159179685,0.936,3533.0,9.36,-0.46962490081787106,9.36,15956487.0,
0.2345,10.0,0.938,0.001265716552734375,0.938,2212.0,9.38,-0.4688037872314453,9.38,15957922.0,
0.235,10.0,0.94,-0.005113792419433594,0.94,16768279.0,9.4,-0.468548583984375,9.4,15958368.0,
0.2355,10.0,0.942,-0.009969520568847656,0.942,16759793.0,9.42,-0.46787052154541015,9.42,15959553.0,
0.236,10.0,0.944,-0.010400390625,0.944,16759040.0,9.44,-0.4664325714111328,9.44,15962066.0,
0.2365,10.0,0.946,0.0019426345825195312,0.946,3395.0,9.46,-0.46560001373291016,9.46,15963521.0,
0.237,10.0,0.948,0.008947563171386718,0.948,15637.0,9.48,-0.4649499893188476,9.48,15964657.0,
0.2375,10.0,0.95,0.008050346374511718,0.95,14069.0,9.5,-0.4666265487670898,9.5,15961727.0,
0.238,10.0,0.952,0.0029022216796875,0.952,5072.0,9.52,-0.4713712692260742,9.52,15953435.0,
0.2385,10.0,0.954,0.0025606155395507812,0.954,4475.0,9.54,-0.47763290405273434,9.54,15942492.0,
0.239,10.0,0.956,-0.002923393249511719,0.956,16772107.0,9.56,-0.4842372894287109,9.56,15930950.0,
0.2395,10.0,0.958,-0.008753585815429687,0.958,16761918.0,9.58,-0.48980941772460934,9.58,15921212.0,
0.24,10.0,0.96,-0.01128559112548828,0.96,16757493.0,9.6,-0.4947944641113281,9.6,15912500.0,
0.2405,10.0,0.962,0.0010374069213867187,0.962,1813.0,9.62,-0.4990659713745117,9.62,15905035.0,
0.241,10.0,0.964,0.007161140441894531,0.964,12515.0,9.64,-0.5020500183105469,9.64,15899820.0,
0.2415,10.0,0.966,0.010602378845214843,0.966,18529.0,9.66,-0.5041854858398437,9.66,15896088.0,
0.242,10.0,0.968,0.00597381591796875,0.968,10440.0,9.68,-0.5048892974853515,9.68,15894858.0,
0.2425,10.0,0.97,0.004082107543945312,0.97,7134.0,9.7,-0.5053808212280273,9.7,15893999.0,
0.243,10.0,0.972,0.0010957717895507812,0.972,1915.0,9.72,-0.505891227722168,9.72,15893107.0,
0.2435,10.0,0.974,-0.005312919616699219,0.974,16767931.0,9.74,-0.5068765640258789,9.74,15891385.0,
0.244,10.0,0.976,-0.010165786743164063,0.976,16759450.0,9.76,-0.5081777572631836,9.76,15889111.0,
0.2445,10.0,0.978,-0.0036266326904296872,0.978,16770878.0,9.78,-0.5094165802001953,9.78,15886946.0,
0.245,10.0,0.98,0.007316780090332031,0.98,12787.0,9.8,-0.5108373641967773,9.8,15884463.0,
0.2455,10.0,0.982,0.010897064208984375,0.982,19044.0,9.82,-0.51199951171875,9.82,15882432.0,
0.246,10.0,0.984,0.008325004577636718,0.984,14549.0,9.84,-0.512727928161621,9.84,15881159.0,
0.2465,10.0,0.986,0.0039052963256835938,0.986,6825.0,9.86,-0.5128583908081055,9.86,15880931.0,
0.247,10.0,0.988,0.0025514602661132813,0.988,4459.0,9.88,-0.5125345230102539,9.88,15881497.0,
0.2475,10.0,0.99,-0.0037445068359374997,0.99,16770672.0,9.9,-0.5119211196899414,9.9,15882569.0,
0.248,10.0,0.992,-0.008208274841308594,0.992,16762871.0,9.92,-0.511014175415039,9.92,15884154.0,
0.2485,10.0,0.994,-0.006576919555664062,0.994,16765722.0,9.94,-0.5096437454223632,9.94,15886549.0,
0.249,10.0,0.996,0.005084037780761719,0.996,8885.0,9.96,-0.5083087921142578,9.96,15888882.0,
0.2495,10.0,0.998,0.012305259704589844,0.998,21505.0,9.98,-0.5067901611328125,9.98,15891536.0,
0.25,10.0,1.0,0.010692214965820313,1.0,18686.0,10.0,-0.5052068710327148,10.0,15894303.0,
0.2505,10.0,1.002,0.006155776977539063,1.002,10758.0,10.02,-0.503825569152832,10.02,15896717.0,
0.251,10.0,1.004,0.005313491821289062,1.004,9286.0,10.04,-0.5022457122802734,10.04,15899478.0,
0.2515,10.0,1.006,-0.0004817962646484375,1.006,16776374.0,10.06,-0.5007499694824219,10.06,15902092.0,
0.252,10.0,1.008,-0.004528999328613281,1.008,16769301.0,10.08,-0.4987483978271484,10.08,15905590.0,
0.2525,10.0,1.01,-0.005668830871582031,1.01,16767309.0,10.1,-0.49696712493896483,10.1,15908703.0,
0.253,10.0,1.012,0.007328224182128906,1.012,12807.0,10.12,-0.49498100280761714,10.12,15912174.0,
0.2535,10.0,1.014,0.02175006866455078,1.014,38011.0,10.14,-0.4926206588745117,10.14,15916299.0,
0.254,10.0,1.016,0.029200172424316405,1.016,51031.0,10.16,-0.4902763366699219,10.16,15920396.0,
0.2545,10.0,1.018,0.02780628204345703,1.018,48595.0,10.18,-0.48851509094238277,10.18,15923474.0,
0.255,10.0,1.02,0.013982391357421875,1.02,24436.0,10.2,-0.48869476318359373,10.2,15923160.0,
0.2555,10.0,1.022,0.008219718933105469,1.022,14365.0,10.22,-0.49156951904296875,10.22,15918136.0,
0.256,10.0,1.024,-0.0012388229370117188,1.024,16775051.0,10.24,-0.4959989547729492,10.24,15910395.0,
0.2565,10.0,1.026,-0.004651451110839843,1.026,16769087.0,10.26,-0.5007843017578125,10.26,15902032.0,
0.257,10.0,1.028,0.000604248046875,1.028,1056.0,10.28,-0.5048131942749023,10.28,15894991.0,
0.2575,10.0,1.03,0.010374069213867188,1.03,18130.0,10.3,-0.508113670349121,10.3,15889223.0,
0.258,10.0,1.032,0.01577510833740234,1.032,27569.0,10.32,-0.5105890274047852,10.32,15884897.0,
0.2585,10.0,1.034,0.011655807495117188,1.034,20370.0,10.34,-0.512051010131836,10.34,15882342.0,
0.259,10.0,1.036,0.0072572708129882806,1.036,12683.0,10.36,-0.5124876022338867,10.36,15881579.0,
0.2595,10.0,1.038,0.005611038208007812,1.038,9806.0,10.38,-0.5122312545776367,10.38,15882027.0,
0.26,10.0,1.04,-0.00102996826171875,1.04,16775416.0,10.4,-0.5110822677612304,10.4,15884035.0,
0.2605,10.0,1.042,-0.005563545227050781,1.042,16767493.0,10.42,-0.5102062225341797,10.42,15885566.0,
0.261,10.0,1.044,-0.0033016204833984375,1.044,16771446.0,10.44,-0.510014533996582,10.44,15885901.0,
0.2615,10.0,1.046,0.009227943420410155,1.046,16127.0,10.46,-0.5099550247192383,10.46,15886005.0,
0.262,10.0,1.048,0.01600799560546875,1.048,27976.0,10.48,-0.5102565765380859,10.48,15885478.0,
0.2625,10.0,1.05,0.015038108825683592,1.05,26281.0,10.5,-0.510867691040039,10.5,15884410.0,
0.263,10.0,1.052,0.010367202758789062,1.052,18118.0,10.52,-0.5109094619750977,10.52,15884337.0,
0.2635,10.0,1.054,0.008298683166503906,1.054,14503.0,10.54,-0.5107646942138672,10.54,15884590.0,
0.264,10.0,1.056,0.002680206298828125,1.056,4684.0,10.56,-0.5102920532226562,10.56,15885416.0,
0.2645,10.0,1.058,-0.0020313262939453125,1.058,16773666.0,10.58,-0.5095830917358398,10.58,15886655.0,
0.265,10.0,1.06,-0.00445404052734375,1.06,16769432.0,10.6,-0.5080839157104492,10.6,15889275.0,
0.2655,10.0,1.062,0.006054496765136718,1.062,10581.0,10.62,-0.5062356948852539,10.62,15892505.0,
0.266,10.0,1.064,0.021419334411621093,1.064,37433.0,10.64,-0.5045831680297851,10.64,15895393.0,
0.2665,10.0,1.066,0.018535423278808593,1.066,32393.0,10.66,-0.5024253845214843,10.66,15899164.0,
0.267,10.0,1.068,0.012841415405273436,1.068,22442.0,10.68,-0.5006092071533202,10.68,15902338.0,
0.2675,10.0,1.07,0.010117149353027344,1.07,17681.0,10.7,-0.49850921630859374,10.7,15906008.0,
0.268,10.0,1.072,0.0066547393798828125,1.072,11630.0,10.72,-0.4963171005249023,10.72,15909839.0,
0.2685,10.0,1.074,0.0006477355957031249,1.074,1132.0,10.74,-0.49407062530517576,10.74,15913765.0,
0.269,10.0,1.076,-0.004387092590332031,1.076,16769549.0,10.76,-0.4915735244750976,10.76,15918129.0,
0.2695,10.0,1.078,0.0040283203125,1.078,7040.0,10.78,-0.4893030166625976,10.78,15922097.0,
0.27,10.0,1.08,0.013210487365722655,1.08,23087.0,10.8,-0.48685111999511715,10.8,15926382.0,
0.2705,10.0,1.082,0.017225646972656248,1.082,30104.0,10.82,-0.484214973449707,10.82,15930989.0,
0.271,10.0,1.084,0.013497734069824218,1.084,23589.0,10.84,-0.48169898986816406,10.84,15935386.0,
0.2715,10.0,1.086,0.010042190551757812,1.086,17550.0,10.86,-0.4786520004272461,10.86,15940711.0,
0.272,10.0,1.088,0.008880615234375,1.088,15520.0,10.88,-0.4757074356079101,10.88,15945857.0,
0.2725,10.0,1.09,0.0018636703491210936,1.09,3257.0,10.9,-0.47380371093749996,10.9,15949184.0,
0.273,10.0,1.092,-0.0021852493286132813,1.092,16773397.0,10.92,-0.4740577697753906,10.92,15948740.0,
0.2735,10.0,1.094,-0.0012691497802734375,1.094,16774998.0,10.94,-0.4764410018920898,10.94,15944575.0,
0.274,10.0,1.096,0.010466194152832032,1.096,18291.0,10.96,-0.47968368530273436,10.96,15938908.0,
0.2745,10.0,1.098,0.017966651916503904,1.098,31399.0,10.98,-0.48325309753417967,10.98,15932670.0,
0.275,10.0,1.1,0.01490192413330078,1.1,26043.0,11.0,-0.4863721847534179,11.0,15927219.0,
0.2755,10.0,1.102,0.009936904907226563,1.102,17366.0,11.02,-0.4888240814208984,11.02,15922934.0,
0.276,10.0,1.104,0.008513832092285156,1.104,14879.0,11.04,-0.4898935317993164,11.04,15921065.0,
0.2765,10.0,1.106,0.0026241302490234374,1.106,4586.0,11.06,-0.49048347473144527,11.06,15920034.0,
0.277,10.0,1.108,-0.0014568328857421874,1.108,16774670.0,11.08,-0.49017562866210934,11.08,15920572.0,
0.2775,10.0,1.11,-0.004096412658691406,1.11,16770057.0,11.1,-0.48947639465332027,11.1,15921794.0,
0.278,10.0,1.112,0.005169296264648437,1.112,9034.0,11.12,-0.48802814483642576,11.12,15924325.0,
0.2785,10.0,1.114,0.012964439392089843,1.114,22657.0,11.14,-0.48705196380615234,11.14,15926031.0,
0.279,10.0,1.116,0.014499092102050781,1.116,25339.0,11.16,-0.4862508773803711,11.16,15927431.0,
0.2795,10.0,1.118,0.008173942565917969,1.118,14285.0,11.18,-0.4858251571655273,11.18,15928175.0,
0.28,10.0,1.12,0.007347679138183593,1.12,12841.0,11.2,-0.4857776641845703,11.2,15928258.0,
0.2805,10.0,1.122,0.003457832336425781,1.122,6043.0,11.22,-0.48580226898193357,11.22,15928215.0,
0.281,10.0,1.124,-0.003933334350585937,1.124,16770342.0,11.24,-0.4856529235839844,11.24,15928476.0,
0.2815,10.0,1.126,-0.00834503173828125,1.126,16762632.0,11.26,-0.484965705871582,11.26,15929677.0,
0.282,10.0,1.128,-0.0016061782836914063,1.128,16774409.0,11.28,-0.48428821563720703,11.28,15930861.0,
0.2825,10.0,1.13,0.008858299255371094,1.13,15481.0,11.3,-0.48282337188720703,11.3,15933421.0,
0.283,10.0,1.132,0.01236419677734375,1.132,21608.0,11.32,-0.48125095367431636,11.32,15936169.0,
0.2835,10.0,1.134,0.008720970153808594,1.134,15241.0,11.34,-0.4789518356323242,11.34,15940187.0,
0.284,10.0,1.136,0.004542732238769531,1.136,7939.0,11.36,-0.47648048400878906,11.36,15944506.0,
0.2845,10.0,1.138,0.0025897979736328124,1.138,4526.0,11.38,-0.47435932159423827,11.38,15948213.0,
0.285,10.0,1.14,-0.004248619079589844,1.14,16769791.0,11.4,-0.47159271240234374,11.4,15953048.0,
0.2855,10.0,1.142,-0.010078811645507812,1.142,16759602.0,11.42,-0.4692878723144531,11.42,15957076.0,
0.286,10.0,1.144,-0.0079925537109375,1.144,16763248.0,11.44,-0.4665859222412109,11.44,15961798.0,
0.2865,10.0,1.146,0.0029457092285156247,1.146,5148.0,11.46,-0.46423702239990233,11.46,15965903.0,
0.287,10.0,1.148,0.009505462646484374,1.148,16612.0,11.48,-0.4614812850952148,11.48,15970719.0,
0.2875,10.0,1.15,0.007683563232421874,1.15,13428.0,11.5,-0.45880565643310545,11.5,15975395.0,
0.288,10.0,1.152,0.0029914855957031247,1.152,5228.0,11.52,-0.45576839447021483,11.52,15980703.0,
0.2885,10.0,1.154,0.00260467529296875,1.154,4552.0,11.54,-0.45264530181884766,11.54,15986161.0,
0.289,10.0,1.156,-0.0050983428955078125,1.156,16768306.0,11.56,-0.44974479675292967,11.56,15991230.0,
0.2895,10.0,1.158,-0.009337234497070312,1.158,16760898.0,11.58,-0.4465141296386719,11.58,15996876.0,
0.29,10.0,1.16,-0.011409759521484375,1.16,16757276.0,11.6,-0.4437887191772461,11.6,16001639.0,
0.2905,10.0,1.162,0.0002758026123046875,1.162,482.0,11.62,-0.44275131225585934,11.62,16003452.0,
0.291,10.0,1.164,0.008055496215820312,1.164,14078.0,11.64,-0.4442481994628906,11.64,16000836.0,
0.2915,10.0,1.166,0.008769035339355469,1.166,15325.0,11.66,-0.4469753265380859,11.66,15996070.0,
0.292,10.0,1.168,0.0037124633789062497,1.168,6488.0,11.68,-0.44971218109130856,11.68,15991287.0,
0.2925,10.0,1.17,0.001485443115234375,1.17,2596.0,11.7,-0.4522642135620117,11.7,15986827.0,
0.293,10.0,1.172,-2.0599365234374998e-05,1.172,16777180.0,11.72,-0.45412616729736327,11.72,15983573.0,
0.2935,10.0,1.174,-0.007790565490722656,1.174,16763601.0,11.74,-0.4552711486816406,11.74,15981572.0,
0.294,10.0,1.176,-0.011891555786132811,1.176,16756434.0,11.76,-0.4556224822998047,11.76,15980958.0,
0.2945,10.0,1.178,-0.004349899291992187,1.178,16769614.0,11.78,-0.4551658630371094,11.78,15981756.0,
0.295,10.0,1.18,0.005111503601074219,1.18,8933.0,11.8,-0.45413761138916015,11.8,15983553.0,
0.2955,10.0,1.182,0.009601593017578125,1.182,16780.0,11.82,-0.4524679183959961,11.82,15986471.0,
0.296,10.0,1.184,0.006035041809082031,1.184,10547.0,11.84,-0.4508806228637695,11.84,15989245.0,
0.2965,10.0,1.186,0.0018980026245117186,1.186,3317.0,11.86,-0.4501012802124023,11.86,15990607.0,
0.297,10.0,1.188,0.0015878677368164062,1.188,2775.0,11.88,-0.4493413925170898,11.88,15991935.0,
0.2975,10.0,1.19,-0.005296897888183594,1.19,16767959.0,11.9,-0.44873771667480467,11.9,15992990.0,
0.298,10.0,1.192,-0.01059894561767578,1.192,16758693.0,11.92,-0.4483354568481445,11.92,15993693.0,
0.2985,10.0,1.194,-0.00855274200439453,1.194,16762269.0,11.94,-0.4475561141967773,11.94,15995055.0,
0.299,10.0,1.196,0.003323936462402344,1.196,5809.0,11.96,-0.44678592681884766,11.96,15996401.0,
0.2995,10.0,1.198,0.010178375244140624,1.198,17788.0,11.98,-0.44561290740966797,11.98,15998451.0,
0.3,10.0,1.2,0.007757949829101562,1.2,13558.0,12.0,-0.4438505172729492,12.0,16001531.0,
0.3005,10.0,1.202,0.0030372619628906247,1.202,5308.0,12.02,-0.4419702529907226,12.02,16004817.0,
0.301,10.0,1.204,0.002433013916015625,1.204,4252.0,12.04,-0.43992862701416013,12.04,16008385.0,
0.3015,10.0,1.206,-0.0033222198486328124,1.206,16771410.0,12.06,-0.43746585845947267,12.06,16012689.0,
0.302,10.0,1.208,-0.008854866027832031,1.208,16761741.0,12.08,-0.4348119735717773,12.08,16017327.0,
0.3025,10.0,1.21,-0.011671257019042968,1.21,16756819.0,12.1,-0.43214778900146483,12.1,16021983.0,
0.303,10.0,1.212,-0.00026607513427734375,1.212,16776751.0,12.12,-0.429400634765625,12.12,16026784.0,
0.3035,10.0,1.214,0.007926177978515624,1.214,13852.0,12.14,-0.42694759368896484,12.14,16031071.0,
0.304,10.0,1.216,0.00912322998046875,1.216,15944.0,12.16,-0.42437267303466797,12.16,16035571.0,
0.3045,10.0,1.218,0.0047092437744140625,1.218,8230.0,12.18,-0.42159347534179686,12.18,16040428.0,
0.305,10.0,1.22,0.002272796630859375,1.22,3972.0,12.2,-0.41887149810791013,12.2,16045185.0,
0.3055,10.0,1.222,-0.0006071090698242188,1.222,16776155.0,12.22,-0.41603507995605465,12.22,16050142.0,
0.306,10.0,1.224,-0.007236099243164062,1.224,16764570.0,12.24,-0.41298637390136717,12.24,16055470.0,
0.3065,10.0,1.226,-0.011418342590332031,1.226,16757261.0,12.26,-0.40982894897460936,12.26,16060988.0,
0.307,10.0,1.228,-0.003696441650390625,1.228,16770756.0,12.28,-0.40734157562255857,12.28,16065335.0,
0.3075,10.0,1.23,0.005938911437988281,1.23,10379.0,12.3,-0.40598487854003906,12.3,16067706.0,
0.308,10.0,1.232,0.009382438659667968,1.232,16397.0,12.32,-0.40698566436767575,12.32,16065957.0,
0.3085,10.0,1.234,0.005928611755371093,1.234,10361.0,12.34,-0.40925846099853513,12.34,16061985.0,
0.309,10.0,1.236,0.0027374267578125,1.236,4784.0,12.36,-0.41180648803710934,12.36,16057532.0,
0.3095,10.0,1.238,0.0007038116455078125,1.238,1230.0,12.38,-0.41396026611328124,12.38,16053768.0,
0.31,10.0,1.24,-0.005549240112304688,1.24,16767518.0,12.4,-0.4153724670410156,12.4,16051300.0,
0.3105,10.0,1.242,-0.01120777130126953,1.242,16757629.0,12.42,-0.416400146484375,12.42,16049504.0,
0.311,10.0,1.244,-0.008684349060058593,1.244,16762039.0,12.44,-0.4166387557983398,12.44,16049087.0,
0.3115,10.0,1.246,0.004425430297851562,1.246,7734.0,12.46,-0.41619873046875,12.46,16049856.0,
0.312,10.0,1.248,0.009835624694824218,1.248,17189.0,12.48,-0.4151447296142578,12.48,16051698.0,
0.3125,10.0,1.25,0.007279014587402343,1.25,12721.0,12.5,-0.4130985260009766,12.5,16055274.0,
0.313,10.0,1.252,0.0036020278930664062,1.252,6295.0,12.52,-0.4115610122680664,12.52,16057961.0,
0.3135,10.0,1.254,0.0026378631591796875,1.254,4610.0,12.54,-0.41003952026367185,12.54,16060620.0,
0.314,10.0,1.256,-0.004476356506347656,1.256,16769393.0,12.56,-0.40895690917968747,12.56,16062512.0,
0.3145,10.0,1.258,-0.009070587158203124,1.258,16761364.0,12.58,-0.4081993103027344,12.58,16063836.0,
0.315,10.0,1.26,-0.0103912353515625,1.26,16759056.0,12.6,-0.4073587417602539,12.6,16065305.0,
0.3155,10.0,1.262,6.0653686523437495e-05,1.262,106.0,12.62,-0.4066274642944336,12.62,16066583.0,
0.316,10.0,1.264,0.007968521118164063,1.264,13926.0,12.64,-0.4058984756469726,12.64,16067857.0,
0.3165,10.0,1.266,0.009184455871582032,1.266,16051.0,12.66,-0.4044937133789062,12.66,16070312.0,
0.317,10.0,1.268,0.003147125244140625,1.268,5500.0,12.68,-0.4025459289550781,12.68,16073716.0,
0.3175,10.0,1.27,0.0013635635375976562,1.27,2383.0,12.7,-0.4008934020996094,12.7,16076604.0,
0.318,10.0,1.272,-0.0023082733154296876,1.272,16773182.0,12.72,-0.39890155792236326,12.72,16080085.0,
0.3185,10.0,1.274,-0.008102989196777344,1.274,16763055.0,12.74,-0.3964828491210937,12.74,16084312.0,
0.319,10.0,1.276,-0.013505172729492186,1.276,16753614.0,12.76,-0.39431018829345704,12.76,16088109.0,
0.3195,10.0,1.278,-0.0043922424316406245,1.278,16769540.0,12.78,-0.39173583984375,12.78,16092608.0,
0.32,10.0,1.28,0.004398536682128906,1.28,7687.0,12.8,-0.38933029174804684,12.8,16096812.0,
0.3205,10.0,1.282,0.008433151245117187,1.282,14738.0,12.82,-0.38634052276611325,12.82,16102037.0,
0.321,10.0,1.284,0.004959869384765625,1.284,8668.0,12.84,-0.3838153839111328,12.84,16106450.0,
0.3215,10.0,1.286,0.0009572982788085937,1.286,1673.0,12.86,-0.3809366226196289,12.86,16111481.0,
0.322,10.0,1.288,-0.00067291259765625,1.288,16776040.0,12.88,-0.37818946838378903,12.88,16116282.0,
0.3225,10.0,1.29,-0.007499885559082031,1.29,16764109.0,12.9,-0.3755029678344726,12.9,16120977.0,
0.323,10.0,1.292,-0.012961578369140624,1.292,16754564.0,12.92,-0.3728765487670898,12.92,16125567.0,
0.3235,10.0,1.294,-0.009309768676757812,1.294,16760946.0,12.94,-0.3699159622192383,12.94,16130741.0,
0.324,10.0,1.296,0.0033565521240234374,1.296,5866.0,12.96,-0.3680259704589844,12.96,16134044.0,
0.3245,10.0,1.298,0.009127235412597657,1.298,15951.0,12.98,-0.36797332763671875,12.98,16134136.0,
0.325,10.0,1.3,0.005869674682617188,1.3,10258.0,13.0,-0.3700407028198242,13.0,16130523.0,
0.3255,10.0,1.302,0.0016513824462890624,1.302,2886.0,13.02,-0.37215728759765626,13.02,16126824.0,
0.326,10.0,1.304,-0.00040397644042968747,1.304,16776510.0,13.04,-0.374505615234375,13.04,16122720.0,
0.3265,10.0,1.306,-0.005909156799316406,1.306,16766889.0,13.06,-0.37616844177246095,13.06,16119814.0,
0.327,10.0,1.308,-0.012248611450195313,1.308,16755810.0,13.08,-0.37703304290771483,13.08,16118303.0,
0.3275,10.0,1.31,-0.01318531036376953,1.31,16754173.0,13.1,-0.37729511260986326,13.1,16117845.0,
0.328,10.0,1.312,-0.002569770812988281,1.312,16772725.0,13.12,-0.37699241638183595,13.12,16118374.0,
0.3285,10.0,1.314,0.005719184875488281,1.314,9995.0,13.14,-0.37585601806640623,13.14,16120360.0,
0.329,10.0,1.316,0.006653022766113281,1.316,11627.0,13.16,-0.3742321014404297,13.16,16123198.0,
0.3295,10.0,1.318,0.0013967514038085937,1.318,2441.0,13.18,-0.3726825714111328,13.18,16125906.0,
0.33,10.0,1.32,-0.0013080596923828124,1.32,16774930.0,13.2,-0.3709871292114258,13.2,16128869.0,
0.3305,10.0,1.322,-0.0041599273681640625,1.322,16769946.0,13.22,-0.3699176788330078,13.22,16130738.0,
0.331,10.0,1.324,-0.011304473876953125,1.324,16757460.0,13.24,-0.36876468658447265,13.24,16132753.0,
0.3315,10.0,1.326,-0.014735412597656249,1.326,16751464.0,13.26,-0.3681901931762695,13.26,16133757.0,
0.332,10.0,1.328,-0.006833267211914062,1.328,16765274.0,13.28,-0.3673564910888672,13.28,16135214.0,
0.3325,10.0,1.33,0.002588081359863281,1.33,4523.0,13.3,-0.36669445037841797,13.3,16136371.0,
0.333,10.0,1.332,0.00670166015625,1.332,11712.0,13.32,-0.36583271026611325,13.32,16137877.0,
0.3335,10.0,1.334,0.0034772872924804686,1.334,6077.0,13.34,-0.3642831802368164,13.34,16140585.0,
0.334,10.0,1.336,-0.0011220932006835937,1.336,16775255.0,13.36,-0.3625253677368164,13.36,16143657.0,
0.3345,10.0,1.338,-0.0021102905273437497,1.338,16773528.0,13.38,-0.36058616638183594,13.38,16147046.0,
0.335,10.0,1.34,-0.008117294311523438,1.34,16763030.0,13.4,-0.3582424163818359,13.4,16151142.0,
0.3355,10.0,1.342,-0.013544082641601562,1.342,16753546.0,13.42,-0.35606918334960935,13.42,16154940.0,
0.336,10.0,1.344,-0.010763740539550782,1.344,16758405.0,13.44,-0.3534095764160156,13.44,16159588.0,
0.3365,10.0,1.346,0.0016159057617187499,1.346,2824.0,13.46,-0.35107841491699215,13.46,16163662.0,
0.337,10.0,1.348,0.006990623474121094,1.348,12217.0,13.48,-0.3483135223388672,13.48,16168494.0,
0.3375,10.0,1.35,0.0047092437744140625,1.35,8230.0,13.5,-0.345842170715332,13.5,16172813.0,
0.338,10.0,1.352,-0.0007993698120117187,1.352,16775819.0,13.52,-0.3431997299194336,13.52,16177431.0,
0.3385,10.0,1.354,-0.0013681411743164062,1.354,16774825.0,13.54,-0.34048976898193356,13.54,16182167.0,
0.339,10.0,1.356,-0.008120727539062499,1.356,16763024.0,13.56,-0.3377655029296875,13.56,16186928.0,
0.3395,10.0,1.358,-0.013177299499511718,1.358,16754187.0,13.58,-0.334855842590332,13.58,16192013.0,
0.34,10.0,1.36,-0.013788986206054687,1.36,16753118.0,13.6,-0.33203773498535155,13.6,16196938.0,
0.3405,10.0,1.362,-0.002217864990234375,1.362,16773340.0,13.62,-0.33048362731933595,13.62,16199654.0,
0.341,10.0,1.364,0.00583648681640625,1.364,10200.0,13.64,-0.33074169158935546,13.64,16199203.0,
0.3415,10.0,1.366,0.006745719909667968,1.366,11789.0,13.66,-0.3329120635986328,13.66,16195410.0,
0.342,10.0,1.368,0.00039882659912109374,1.368,697.0,13.68,-0.3348644256591797,13.68,16191998.0,
0.3425,10.0,1.37,0.0035573959350585936,1.37,6217.0,13.7,-0.33702964782714845,13.7,16188214.0,
0.343,10.0,1.372,0.017964935302734374,1.372,31396.0,13.72,-0.3383880615234375,13.72,16185840.0,
0.3435,10.0,1.374,0.01863613128662109,1.374,32569.0,13.74,-0.3392166137695312,13.74,16184392.0,
0.344,10.0,1.376,0.016930961608886717,1.376,29589.0,13.76,-0.3393985748291016,13.76,16184074.0,
0.3445,10.0,1.378,0.02689189910888672,1.378,46997.0,13.78,-0.33878002166748045,13.78,16185155.0,
0.345,10.0,1.38,0.03459434509277343,1.38,60458.0,13.8,-0.3371858596801758,13.8,16187941.0,
0.3455,10.0,1.382,0.038865280151367185,1.382,67922.0,13.82,-0.3355991363525391,13.82,16190714.0,
0.346,10.0,1.384,0.03309917449951172,1.384,57845.0,13.84,-0.3338865280151367,13.84,16193707.0,
0.3465,10.0,1.386,0.030008697509765623,1.386,52444.0,13.86,-0.3323369979858398,13.86,16196415.0,
0.347,10.0,1.388,0.028265762329101562,1.388,49398.0,13.88,-0.3311565399169922,13.88,16198478.0,
0.3475,10.0,1.39,0.021641921997070313,1.39,37822.0,13.9,-0.3304229736328125,13.9,16199760.0,
0.348,10.0,1.392,0.015447235107421874,1.392,26996.0,13.92,-0.32947711944580077,13.92,16201413.0,
0.3485,10.0,1.394,0.018711090087890625,1.394,32700.0,13.94,-0.32952919006347653,13.94,16201322.0,
0.349,10.0,1.396,0.030114555358886717,1.396,52629.0,13.96,-0.32904624938964844,13.96,16202166.0,
0.3495,10.0,1.398,0.03557167053222656,1.398,62166.0,13.98,-0.32816390991210936,13.98,16203708.0,
0.35,10.0,1.4,0.02971057891845703,1.4,51923.0,14.0,-0.3269926071166992,14.0,16205755.0,
0.3505,10.0,1.402,0.013560104370117187,1.402,23698.0,14.02,-0.3253480911254883,14.02,16208629.0,
0.351,10.0,1.404,0.008097267150878907,1.404,14151.0,14.04,-0.3234094619750976,14.04,16212017.0,
0.3515,10.0,1.406,-0.0008113861083984375,1.406,16775798.0,14.06,-0.3212121963500976,14.06,16215857.0,
0.352,10.0,1.408,-0.006427574157714844,1.408,16765983.0,14.08,-0.3191780090332031,14.08,16219412.0,
0.3525,10.0,1.41,-0.009833908081054688,1.41,16760030.0,14.1,-0.3168313980102539,14.1,16223513.0,
0.353,10.0,1.412,0.0022058486938476562,1.412,3855.0,14.12,-0.3146804809570312,14.12,16227272.0,
0.3535,10.0,1.414,0.009326934814453125,1.414,16300.0,14.14,-0.31241626739501954,14.14,16231229.0,
0.354,10.0,1.416,0.008601951599121093,1.416,15033.0,14.16,-0.30984935760498045,14.16,16235715.0,
0.3545,10.0,1.418,0.0028375625610351563,1.418,4959.0,14.18,-0.3072790145874023,14.18,16240207.0,
0.355,10.0,1.42,0.0009532928466796874,1.42,1666.0,14.2,-0.30472469329833984,14.2,16244671.0,
0.3555,10.0,1.422,-0.0037261962890625,1.422,16770704.0,14.22,-0.3020153045654297,14.22,16249406.0,
0.356,10.0,1.424,-0.009959220886230469,1.424,16759811.0,14.24,-0.2996927261352539,14.24,16253465.0,
0.3565,10.0,1.426,-0.013886833190917968,1.426,16752947.0,14.26,-0.29836177825927734,14.26,16255791.0,
0.357,10.0,1.428,-0.005128669738769531,1.428,16768253.0,14.28,-0.2992481231689453,14.28,16254242.0,
0.3575,10.0,1.43,0.004694938659667969,1.43,8205.0,14.3,-0.3017515182495117,14.3,16249867.0,
0.358,10.0,1.432,0.007396316528320312,1.432,12926.0,14.32,-0.3041696548461914,14.32,16245641.0,
0.3585,10.0,1.434,0.0025777816772460938,1.434,4505.0,14.34,-0.3063056945800781,14.34,16241908.0,
0.359,10.0,1.436,-0.00030670166015624997,1.436,16776680.0,14.36,-0.3083444595336914,14.36,16238345.0,
0.3595,10.0,1.438,-0.0018087387084960937,1.438,16774055.0,14.38,-0.30910606384277345,14.38,16237014.0,
0.36,10.0,1.44,-0.008736419677734374,1.44,16761948.0,14.4,-0.3093595504760742,14.4,16236571.0,
0.3605,10.0,1.442,-0.015174293518066406,1.442,16750697.0,14.42,-0.3091672897338867,14.42,16236907.0,
0.361,10.0,1.444,-0.01069793701171875,1.444,16758520.0,14.44,-0.3081001281738281,14.44,16238772.0,
0.3615,10.0,1.446,0.0021177291870117187,1.446,3701.0,14.46,-0.3067153930664062,14.46,16241192.0,
0.362,10.0,1.448,0.006994056701660156,1.448,12223.0,14.48,-0.305375862121582,14.48,16243533.0,
0.3625,10.0,1.45,0.0036558151245117184,1.45,6389.0,14.5,-0.30380916595458984,14.5,16246271.0,
0.363,10.0,1.452,0.0001739501953125,1.452,304.0,14.52,-0.30278263092041013,14.52,16248065.0,
0.3635,10.0,1.454,-0.0003147125244140625,1.454,16776666.0,14.54,-0.30217552185058594,14.54,16249126.0,
0.364,10.0,1.456,-0.006200981140136719,1.456,16766379.0,14.56,-0.3018796920776367,14.56,16249643.0,
0.3645,10.0,1.458,-0.010311126708984375,1.458,16759196.0,14.58,-0.30164165496826173,14.58,16250059.0,
0.365,10.0,1.46,-0.012225151062011719,1.46,16755851.0,14.6,-0.30118160247802733,14.6,16250863.0,
0.3655,10.0,1.462,-0.0012056350708007813,1.462,16775109.0,14.62,-0.30078563690185545,14.62,16251555.0,
0.366,10.0,1.464,0.007681846618652344,1.464,13425.0,14.64,-0.2995885848999023,14.64,16253647.0,
0.3665,10.0,1.466,0.007906150817871093,1.466,13817.0,14.66,-0.29846763610839844,14.66,16255606.0,
0.367,10.0,1.468,0.0021978378295898437,1.468,3841.0,14.68,-0.29696044921875,14.68,16258240.0,
0.3675,10.0,1.47,0.0009944915771484375,1.47,1738.0,14.7,-0.29495601654052733,14.7,16261743.0,
0.368,10.0,1.472,-0.0026859283447265626,1.472,16772522.0,14.72,-0.29309921264648436,14.72,16264988.0,
0.3685,10.0,1.474,-0.009524917602539063,1.474,16760570.0,14.74,-0.29086990356445314,14.74,16268884.0,
0.369,10.0,1.476,-0.014940834045410155,1.476,16751105.0,14.76,-0.2888986587524414,14.76,16272329.0,
0.3695,10.0,1.478,-0.005108070373535156,1.478,16768289.0,14.78,-0.2865549087524414,14.78,16276425.0,
0.37,10.0,1.48,0.0034915924072265623,1.48,6102.0,14.8,-0.28468952178955076,14.8,16279685.0,
0.3705,10.0,1.482,0.0062713623046875,1.482,10960.0,14.82,-0.2823812484741211,14.82,16283719.0,
0.371,10.0,1.484,0.001171875,1.484,2048.0,14.84,-0.2801490783691406,14.84,16287620.0,
0.3715,10.0,1.486,-0.001934051513671875,1.486,16773836.0,14.86,-0.2777383804321289,14.86,16291833.0,
0.372,10.0,1.488,-0.0038274765014648434,1.488,16770527.0,14.88,-0.27654190063476564,14.88,16293924.0,
0.3725,10.0,1.49,-0.010060501098632811,1.49,16759634.0,14.9,-0.2770648956298828,14.9,16293010.0,
0.373,10.0,1.492,-0.015169143676757812,1.492,16750706.0,14.92,-0.2795419692993164,14.92,16288681.0,
0.3735,10.0,1.494,-0.010998916625976561,1.494,16757994.0,14.94,-0.28204708099365233,14.94,16284303.0,
0.374,10.0,1.496,0.00030155181884765624,1.496,527.0,14.96,-0.28479595184326173,14.96,16279499.0,
0.3745,10.0,1.498,0.005939483642578125,1.498,10380.0,14.98,-0.2872312545776367,14.98,16275243.0,
0.375,10.0,1.5,0.003682708740234375,1.5,6436.0,15.0,-0.28875274658203126,15.0,16272584.0,
0.3755,10.0,1.502,-0.0005361557006835937,1.502,16776279.0,15.02,-0.29028453826904294,15.02,16269907.0,
0.376,10.0,1.504,-0.00205535888671875,1.504,16773624.0,15.04,-0.2903623580932617,15.04,16269771.0,
0.3765,10.0,1.506,-0.007403755187988281,1.506,16764277.0,15.06,-0.2903308868408203,15.06,16269826.0,
0.377,10.0,1.508,-0.01326141357421875,1.508,16754040.0,15.08,-0.2892288208007812,15.08,16271752.0,
0.3775,10.0,1.51,-0.013406753540039062,1.51,16753786.0,15.1,-0.28848609924316404,15.1,16273050.0,
0.378,10.0,1.512,-0.002739143371582031,1.512,16772429.0,15.12,-0.28736286163330077,15.12,16275013.0,
0.3785,10.0,1.514,0.0058502197265625,1.514,10224.0,15.14,-0.2869829177856445,15.14,16275677.0,
0.379,10.0,1.516,0.0052162170410156245,1.516,9116.0,15.16,-0.2871803283691406,15.16,16275332.0,
0.3795,10.0,1.518,0.0006563186645507812,1.518,1147.0,15.18,-0.2874755859375,15.18,16274816.0,
0.38,10.0,1.52,0.0005390167236328124,1.52,942.0,15.2,-0.2874406814575195,15.2,16274877.0,
0.3805,10.0,1.522,-0.005938911437988281,1.522,16766837.0,15.22,-0.2875528335571289,15.22,16274681.0,
0.381,10.0,1.524,-0.01174335479736328,1.524,16756693.0,15.24,-0.28784637451171874,15.24,16274168.0,
0.3815,10.0,1.526,-0.013938331604003906,1.526,16752857.0,15.26,-0.28740463256835935,15.26,16274940.0,
0.382,10.0,1.528,-0.005198478698730469,1.528,16768131.0,15.28,-0.2869274139404297,15.28,16275774.0,
0.3825,10.0,1.53,0.0024805068969726562,1.53,4335.0,15.3,-0.28591003417968747,15.3,16277552.0,
0.383,10.0,1.532,0.006878471374511718,1.532,12021.0,15.32,-0.2850494384765625,15.32,16279056.0,
0.3835,10.0,1.534,0.001973533630371094,1.534,3449.0,15.34,-0.2836606979370117,15.34,16281483.0,
0.384,10.0,1.536,-0.0014104843139648438,1.536,16774751.0,15.36,-0.28211231231689454,15.36,16284189.0,
0.3845,10.0,1.538,-0.002328300476074219,1.538,16773147.0,15.38,-0.28037338256835936,15.38,16287228.0,
0.385,10.0,1.54,-0.008991050720214843,1.54,16761503.0,15.4,-0.2785165786743164,15.4,16290473.0,
0.3855,10.0,1.542,-0.014212417602539062,1.542,16752378.0,15.42,-0.2769784927368164,15.42,16293161.0,
0.386,10.0,1.544,-0.009229660034179688,1.544,16761086.0,15.44,-0.2752613067626953,15.44,16296162.0,
0.3865,10.0,1.546,0.002783203125,1.546,4864.0,15.46,-0.273698616027832,15.46,16298893.0,
0.387,10.0,1.548,0.009345817565917968,1.548,16333.0,15.48,-0.2719144821166992,15.48,16302011.0,
0.3875,10.0,1.55,0.006830978393554688,1.55,11938.0,15.5,-0.27130565643310545,15.5,16303075.0,
0.388,10.0,1.552,0.005002784729003906,1.552,8743.0,15.52,-0.2730709075927734,15.52,16299990.0,
0.3885,10.0,1.554,0.006523704528808593,1.554,11401.0,15.54,-0.276287841796875,15.54,16294368.0,
0.389,10.0,1.556,0.0038211822509765622,1.556,6678.0,15.56,-0.28006439208984374,15.56,16287768.0,
0.3895,10.0,1.558,0.005894851684570312,1.558,10302.0,15.58,-0.2838289260864258,15.58,16281189.0,
0.39,10.0,1.56,0.011556243896484375,1.56,20196.0,15.6,-0.2869228363037109,15.6,16275782.0,
0.3905,10.0,1.562,0.0285919189453125,1.562,49968.0,15.62,-0.28948059082031247,15.62,16271312.0,
0.391,10.0,1.564,0.03962574005126953,1.564,69251.0,15.64,-0.2911943435668945,15.64,16268317.0,
0.3915,10.0,1.566,0.03940143585205078,1.566,68859.0,15.66,-0.29219398498535154,15.66,16266570.0,
0.392,10.0,1.568,0.03334121704101562,1.568,58268.0,15.68,-0.29284801483154294,15.68,16265427.0,
0.3925,10.0,1.57,0.022808647155761717,1.57,39861.0,15.7,-0.29286918640136717,15.7,16265390.0,
0.393,10.0,1.572,0.015462112426757811,1.572,27022.0,15.72,-0.29280338287353513,15.72,16265505.0,
0.3935,10.0,1.574,0.006305694580078125,1.574,11020.0,15.74,-0.2928955078125,15.74,16265344.0,
0.394,10.0,1.576,0.0023420333862304685,1.576,4093.0,15.76,-0.2935312271118164,15.76,16264233.0,
0.3945,10.0,1.578,0.009588432312011718,1.578,16757.0,15.78,-0.29448165893554684,15.78,16262572.0,
0.395,10.0,1.58,0.016677474975585936,1.58,29146.0,15.8,-0.2958040237426758,15.8,16260261.0,
0.3955,10.0,1.582,0.021160125732421875,1.582,36980.0,15.82,-0.29685058593749997,15.82,16258432.0,
0.396,10.0,1.584,0.016230010986328123,1.584,28364.0,15.84,-0.2981912612915039,15.84,16256089.0,
0.3965,10.0,1.586,0.010375785827636718,1.586,18133.0,15.86,-0.2992841720581055,15.86,16254179.0,
0.397,10.0,1.588,0.008580780029296875,1.588,14996.0,15.88,-0.29982433319091795,15.88,16253235.0,
0.3975,10.0,1.59,0.0002323150634765625,1.59,406.0,15.9,-0.3001979827880859,15.9,16252582.0,
0.398,10.0,1.592,-0.007450675964355468,1.592,16764195.0,15.92,-0.2999736785888672,15.92,16252974.0,
0.3985,10.0,1.594,-0.006865310668945313,1.594,16765218.0,15.94,-0.2999141693115234,15.94,16253078.0,
0.399,10.0,1.596,0.0011461257934570312,1.596,2003.0,15.96,-0.2992504119873047,15.96,16254238.0,
0.3995,10.0,1.598,0.0025897979736328124,1.598,4526.0,15.98,-0.2988126754760742,15.98,16255003.0,
0.4,10.0,1.6,-0.000638580322265625,1.6,16776100.0,16.0,-0.29814376831054684,16.0,16256172.0,
0.4005,10.0,1.602,-0.005743217468261719,1.602,16767179.0,16.02,-0.2971641540527344,16.02,16257884.0,
0.401,10.0,1.604,-0.005599021911621094,1.604,16767431.0,16.04,-0.29628582000732423,16.04,16259419.0,
0.4015,10.0,1.606,-0.010149765014648437,1.606,16759478.0,16.06,-0.29505329132080077,16.06,16261573.0,
0.402,10.0,1.608,-0.013682556152343749,1.608,16753304.0,16.08,-0.29418354034423827,16.08,16263093.0,
0.4025,10.0,1.61,-0.013415336608886719,1.61,16753771.0,16.1,-0.2943214416503906,16.1,16262852.0,
0.403,10.0,1.612,-0.0015987396240234374,1.612,16774422.0,16.12,-0.29669723510742185,16.12,16258700.0,
0.4035,10.0,1.614,0.0066009521484374995,1.614,11536.0,16.14,-0.30069522857666015,16.14,16251713.0,
0.404,10.0,1.616,0.006694793701171875,1.616,11700.0,16.16,-0.30591545104980467,16.16,16242590.0,
0.4045,10.0,1.618,0.0023557662963867186,1.618,4117.0,16.18,-0.3108198165893555,16.18,16234019.0,
0.405,10.0,1.62,0.00119476318359375,1.62,2088.0,16.2,-0.3154895782470703,16.2,16225858.0,
0.4055,10.0,1.622,-0.004094123840332031,1.622,16770061.0,16.22,-0.3196220397949219,16.22,16218636.0,
0.406,10.0,1.624,-0.009021377563476563,1.624,16761450.0,16.24,-0.32262439727783204,16.24,16213389.0,
0.4065,10.0,1.626,-0.013193893432617187,1.626,16754158.0,16.26,-0.324766731262207,16.26,16209645.0,
0.407,10.0,1.628,-0.004031753540039062,1.628,16770170.0,16.28,-0.3264495849609375,16.28,16206704.0,
0.4075,10.0,1.63,0.004822540283203125,1.63,8428.0,16.3,-0.3270606994628906,16.3,16205636.0,
0.408,10.0,1.632,0.008658027648925782,1.632,15131.0,16.32,-0.3273616790771484,16.32,16205110.0,
0.4085,10.0,1.634,0.003867530822753906,1.634,6759.0,16.34,-0.32814445495605465,16.34,16203742.0,
0.409,10.0,1.636,0.0012559890747070312,1.636,2195.0,16.36,-0.3293638229370117,16.36,16201611.0,
0.4095,10.0,1.638,-0.00011157989501953125,1.638,16777021.0,16.38,-0.3309047698974609,16.38,16198918.0,
0.41,10.0,1.64,-0.00866546630859375,1.64,16762072.0,16.4,-0.3329612731933594,16.4,16195324.0,
0.4105,10.0,1.642,-0.013001632690429686,1.642,16754494.0,16.42,-0.33483295440673827,16.42,16192053.0,
0.411,10.0,1.644,-0.007868385314941407,1.644,16763465.0,16.44,-0.33689517974853517,16.44,16188449.0,
0.4115,10.0,1.646,0.004118156433105469,1.646,7197.0,16.46,-0.33839836120605465,16.46,16185822.0,
0.412,10.0,1.648,0.009090614318847655,1.648,15887.0,16.48,-0.33952560424804684,16.48,16183852.0,
0.4125,10.0,1.65,0.005954360961914062,1.65,10406.0,16.5,-0.34061737060546876,16.5,16181944.0,
0.413,10.0,1.652,0.0013910293579101562,1.652,2431.0,16.52,-0.3414161682128906,16.52,16180548.0,
0.4135,10.0,1.654,-0.00012645721435546874,1.654,16776995.0,16.54,-0.3416891098022461,16.54,16180071.0,
0.414,10.0,1.656,-0.005788993835449219,1.656,16767099.0,16.56,-0.34179039001464845,16.56,16179894.0,
0.4145,10.0,1.658,-0.010612106323242188,1.658,16758670.0,16.58,-0.34160785675048827,16.58,16180213.0,
0.415,10.0,1.66,-0.010676193237304687,1.66,16758558.0,16.6,-0.34134063720703123,16.6,16180680.0,
0.4155,10.0,1.662,0.0017503738403320311,1.662,3059.0,16.62,-0.34111576080322265,16.62,16181073.0,
0.416,10.0,1.664,0.009203910827636719,1.664,16085.0,16.64,-0.34015045166015623,16.64,16182760.0,
0.4165,10.0,1.666,0.007884979248046875,1.666,13780.0,16.66,-0.3400308609008789,16.66,16182969.0,
0.417,10.0,1.668,0.002807807922363281,1.668,4907.0,16.68,-0.33919200897216795,16.68,16184435.0,
0.4175,10.0,1.67,0.001132965087890625,1.67,1980.0,16.7,-0.3397378921508789,16.7,16183481.0,
0.418,10.0,1.672,-0.00338287353515625,1.672,16771304.0,16.72,-0.34212341308593747,16.72,16179312.0,
0.4185,10.0,1.674,-0.009373283386230469,1.674,16760835.0,16.74,-0.3465110778808594,16.74,16171644.0,
0.419,10.0,1.676,-0.012694358825683594,1.676,16755031.0,16.76,-0.35216503143310546,16.76,16161763.0,
0.4195,10.0,1.678,-0.0019575119018554687,1.678,16773795.0,16.78,-0.3574230194091797,16.78,16152574.0,
0.42,10.0,1.68,0.006115150451660156,1.68,10687.0,16.8,-0.3626409530639648,16.8,16143455.0,
0.4205,10.0,1.682,0.008677482604980469,1.682,15165.0,16.82,-0.3669382095336914,16.82,16135945.0,
0.421,10.0,1.684,0.004127311706542969,1.684,7213.0,16.84,-0.37072277069091797,16.84,16129331.0,
0.4215,10.0,1.686,0.0015386581420898436,1.686,2689.0,16.86,-0.373307991027832,16.86,16124813.0,
0.422,10.0,1.688,-0.0010042190551757812,1.688,16775461.0,16.88,-0.37472076416015626,16.88,16122344.0,
0.4225,10.0,1.69,-0.007579994201660156,1.69,16763969.0,16.9,-0.375421142578125,16.9,16121120.0,
0.423,10.0,1.692,-0.01214447021484375,1.692,16755992.0,16.92,-0.3759727478027344,16.92,16120156.0,
0.4235,10.0,1.694,-0.00704498291015625,1.694,16764904.0,16.94,-0.3766324996948242,16.94,16119003.0,
0.424,10.0,1.696,0.0038309097290039062,1.696,6695.0,16.96,-0.3776447296142578,16.96,16117234.0,
0.4245,10.0,1.698,0.009794998168945312,1.698,17118.0,16.98,-0.3796417236328125,16.98,16113744.0,
0.425,10.0,1.7,0.007307624816894531,1.7,12771.0,17.0,-0.3815923690795898,17.0,16110335.0,
0.4255,10.0,1.702,0.011953353881835938,1.702,20890.0,17.02,-0.3835739135742187,17.02,16106872.0,
0.426,10.0,1.704,0.014095115661621093,1.704,24633.0,17.04,-0.38584041595458984,17.04,16102911.0,
0.4265,10.0,1.706,0.0003879547119140625,1.706,678.0,17.06,-0.38763427734375,17.06,16099776.0,
0.427,10.0,1.708,-0.005627059936523437,1.708,16767382.0,17.08,-0.3888679504394531,17.08,16097620.0,
0.4275,10.0,1.71,-0.009166145324707031,1.71,16761197.0,17.1,-0.3898921966552734,17.1,16095830.0,
0.428,10.0,1.712,0.003196907043457031,1.712,5587.0,17.12,-0.39001007080078126,17.12,16095624.0,
0.4285,10.0,1.714,0.011302757263183593,1.714,19753.0,17.14,-0.39051132202148436,17.14,16094748.0,
0.429,10.0,1.716,0.009712028503417968,1.716,16973.0,17.16,-0.39044551849365233,17.16,16094863.0,
0.4295,10.0,1.718,0.005042839050292969,1.718,8813.0,17.18,-0.38980865478515625,17.18,16095976.0,
0.43,10.0,1.72,0.0033931732177734375,1.72,5930.0,17.2,-0.38939323425292965,17.2,16096702.0,
0.4305,10.0,1.722,-0.0022418975830078122,1.722,16773298.0,17.22,-0.3890974044799805,17.22,16097219.0,
0.431,10.0,1.724,-0.007770538330078125,1.724,16763636.0,17.24,-0.38846168518066404,17.24,16098330.0,
0.4315,10.0,1.726,-0.010573768615722656,1.726,16758737.0,17.26,-0.38781166076660156,17.26,16099466.0,
0.432,10.0,1.728,0.0003833770751953125,1.728,670.0,17.28,-0.38762454986572265,17.28,16099793.0,
0.4325,10.0,1.73,0.008684921264648437,1.73,15178.0,17.3,-0.3891855239868164,17.3,16097065.0,
0.433,10.0,1.732,0.011023521423339844,1.732,19265.0,17.32,-0.39352855682373045,17.32,16089475.0,
0.4335,10.0,1.734,0.00585479736328125,1.734,10232.0,17.34,-0.39931468963623046,17.34,16079363.0,
0.434,10.0,1.736,0.0037570953369140624,1.736,6566.0,17.36,-0.40549564361572266,17.36,16068561.0,
0.4345,10.0,1.738,0.0014905929565429688,1.738,2605.0,17.38,-0.41148719787597654,17.38,16058090.0,
0.435,10.0,1.74,-0.0052471160888671875,1.74,16768046.0,17.4,-0.4160837173461914,17.4,16050057.0,
0.4355,10.0,1.742,-0.009241676330566407,1.742,16761065.0,17.42,-0.42041244506835934,17.42,16042492.0,
0.436,10.0,1.744,-0.00379486083984375,1.744,16770584.0,17.44,-0.4232442855834961,17.44,16037543.0,
0.4365,10.0,1.746,0.00698089599609375,1.746,12200.0,17.46,-0.42543869018554686,17.46,16033708.0,
0.437,10.0,1.748,0.01240711212158203,1.748,21683.0,17.48,-0.4267547607421875,17.48,16031408.0,
0.4375,10.0,1.75,0.009622764587402343,1.75,16817.0,17.5,-0.4270940780639648,17.5,16030815.0,
0.438,10.0,1.752,0.005290031433105469,1.752,9245.0,17.52,-0.4277486801147461,17.52,16029671.0,
0.4385,10.0,1.754,0.004601669311523437,1.754,8042.0,17.54,-0.428851318359375,17.54,16027744.0,
0.439,10.0,1.756,-0.0019231796264648437,1.756,16773855.0,17.56,-0.43028812408447265,17.56,16025233.0,
0.4395,10.0,1.758,-0.007407188415527344,1.758,16764271.0,17.58,-0.43216495513916015,17.58,16021953.0,
0.44,10.0,1.76,-0.006988334655761719,1.76,16765003.0,17.6,-0.4342168807983398,17.6,16018367.0,
0.4405,10.0,1.762,0.004718971252441406,1.762,8247.0,17.62,-0.43628768920898436,17.62,16014748.0,
0.441,10.0,1.764,0.01326770782470703,1.764,23187.0,17.64,-0.43812904357910154,17.64,16011530.0,
0.4415,10.0,1.766,0.012500381469726563,1.766,21846.0,17.66,-0.4394359588623047,17.66,16009246.0,
0.442,10.0,1.768,0.007685279846191406,1.768,13431.0,17.68,-0.44035377502441403,17.68,16007642.0,
0.4425,10.0,1.77,0.006254768371582031,1.77,10931.0,17.7,-0.4405660629272461,17.7,16007271.0,
0.443,10.0,1.772,0.0011089324951171875,1.772,1938.0,17.72,-0.4404693603515625,17.72,16007440.0,
0.4435,10.0,1.774,-0.0034292221069335935,1.774,16771223.0,17.74,-0.44025077819824215,17.74,16007822.0,
0.444,10.0,1.776,-0.006810379028320312,1.776,16765314.0,17.76,-0.4396053314208984,17.76,16008950.0,
0.4445,10.0,1.778,0.0035013198852539063,1.778,6119.0,17.78,-0.4391658782958984,17.78,16009718.0,
0.445,10.0,1.78,0.012179374694824219,1.78,21285.0,17.8,-0.438398551940918,17.8,16011059.0,
0.4455,10.0,1.782,0.01483325958251953,1.782,25923.0,17.82,-0.43718719482421875,17.82,16013176.0,
0.446,10.0,1.784,0.010308837890625,1.784,18016.0,17.84,-0.4362253189086914,17.84,16014857.0,
0.4465,10.0,1.786,0.007478141784667968,1.786,13069.0,17.86,-0.43576469421386715,17.86,16015662.0,
0.447,10.0,1.788,0.004998207092285156,1.788,8735.0,17.88,-0.4369474411010742,17.88,16013595.0,
0.4475,10.0,1.79,-0.0013898849487304686,1.79,16774787.0,17.9,-0.44139232635498044,17.9,16005827.0,
0.448,10.0,1.792,-0.005640220642089844,1.792,16767359.0,17.92,-0.44758243560791017,17.92,15995009.0,
0.4485,10.0,1.794,-0.00022487640380859373,1.794,16776823.0,17.94,-0.45437965393066404,17.94,15983130.0,
0.449,10.0,1.796,0.010420417785644532,1.796,18211.0,17.96,-0.46097431182861326,17.96,15971605.0,
0.4495,10.0,1.798,0.016010284423828125,1.798,27980.0,17.98,-0.4663684844970703,17.98,15962178.0,
0.45,10.0,1.8,0.012626266479492188,1.8,22066.0,18.0,-0.4713541030883789,18.0,15953465.0,
0.4505,10.0,1.802,0.009266281127929687,1.802,16194.0,18.02,-0.47496356964111325,18.02,15947157.0,
0.451,10.0,1.804,0.007880973815917968,1.804,13773.0,18.04,-0.4777627944946289,18.04,15942265.0,
0.4515,10.0,1.806,0.0002758026123046875,1.806,482.0,18.06,-0.4792407989501953,18.06,15939682.0,
0.452,10.0,1.808,-0.004771041870117188,1.808,16768878.0,18.08,-0.4801300048828125,18.08,15938128.0,
0.4525,10.0,1.81,-0.004836845397949219,1.81,16768763.0,18.1,-0.48099517822265625,18.1,15936616.0,
0.453,10.0,1.812,0.006821823120117187,1.812,11922.0,18.12,-0.48199825286865233,18.12,15934863.0,
0.4535,10.0,1.814,0.012412834167480468,1.814,21693.0,18.14,-0.4836433410644531,18.14,15931988.0,
0.454,10.0,1.816,0.0119110107421875,1.816,20816.0,18.16,-0.48601512908935546,18.16,15927843.0,
0.4545,10.0,1.818,0.007152557373046875,1.818,12500.0,18.18,-0.4883525848388672,18.18,15923758.0,
0.455,10.0,1.82,0.00613861083984375,1.82,10728.0,18.2,-0.49043827056884765,18.2,15920113.0,
0.4555,10.0,1.822,-0.0005779266357421875,1.822,16776206.0,18.22,-0.4925033569335937,18.22,15916504.0,
0.456,10.0,1.824,-0.005377578735351563,1.824,16767818.0,18.24,-0.49389667510986324,18.24,15914069.0,
0.4565,10.0,1.826,-0.010293960571289062,1.826,16759226.0,18.26,-0.49468517303466797,18.26,15912691.0,
0.457,10.0,1.828,0.000789642333984375,1.828,1380.0,18.28,-0.4949907302856445,18.28,15912157.0,
0.4575,10.0,1.83,0.00839080810546875,1.83,14664.0,18.3,-0.49533748626708984,18.3,15911551.0,
0.458,10.0,1.832,0.010229301452636718,1.832,17877.0,18.32,-0.4949014663696289,18.32,15912313.0,
0.4585,10.0,1.834,0.004532432556152343,1.834,7921.0,18.34,-0.49451179504394527,18.34,15912994.0,
0.459,10.0,1.836,0.001865386962890625,1.836,3260.0,18.36,-0.4938840866088867,18.36,15914091.0,
0.4595,10.0,1.838,-0.0007547378540039062,1.838,16775897.0,18.38,-0.49331817626953123,18.38,15915080.0,
0.46,10.0,1.84,-0.007139968872070312,1.84,16764738.0,18.4,-0.49251136779785154,18.4,15916490.0,
0.4605,10.0,1.842,-0.012507247924804687,1.842,16755358.0,18.42,-0.49143905639648433,18.42,15918364.0,
0.461,10.0,1.844,-0.006823539733886719,1.844,16765291.0,18.44,-0.4902786254882812,18.44,15920392.0,
0.4615,10.0,1.846,0.003725624084472656,1.846,6511.0,18.46,-0.4892881393432617,18.46,15922123.0,
0.462,10.0,1.848,0.009134674072265625,1.848,15964.0,18.48,-0.4906414031982422,18.48,15919758.0,
0.4625,10.0,1.85,0.005583000183105469,1.85,9757.0,18.5,-0.49540958404541013,18.5,15911425.0,
0.463,10.0,1.852,0.0010351181030273436,1.852,1809.0,18.52,-0.5017330169677734,18.52,15900374.0,
0.4635,10.0,1.854,-2.803802490234375e-05,1.854,16777167.0,18.54,-0.508439826965332,18.54,15888653.0,
0.464,10.0,1.856,-0.0069305419921875,1.856,16765104.0,18.56,-0.5148513793945312,18.56,15877448.0,
0.4645,10.0,1.858,-0.01191558837890625,1.858,16756392.0,18.58,-0.5203639984130859,18.58,15867814.0,
0.465,10.0,1.86,-0.011433219909667969,1.86,16757235.0,18.6,-0.5247945785522461,18.6,15860071.0,
0.4655,10.0,1.862,0.0003210067749023437,1.862,561.0,18.62,-0.5279680252075195,18.62,15854525.0,
0.466,10.0,1.864,0.006556892395019531,1.864,11459.0,18.64,-0.530276870727539,18.64,15850490.0,
0.4665,10.0,1.866,0.005489730834960937,1.866,9594.0,18.66,-0.5312038421630859,18.66,15848870.0,
0.467,10.0,1.868,0.0010448455810546874,1.868,1826.0,18.68,-0.5313457489013672,18.68,15848622.0,
0.4675,10.0,1.87,0.00017051696777343748,1.87,298.0,18.7,-0.5316930770874023,18.7,15848015.0,
0.468,10.0,1.872,-0.005673408508300781,1.872,16767301.0,18.72,-0.5325027465820312,18.72,15846600.0,
0.4685,10.0,1.874,-0.010732841491699218,1.874,16758459.0,18.74,-0.5337650299072265,18.74,15844394.0,
0.469,10.0,1.876,-0.013349533081054688,1.876,16753886.0,18.76,-0.5356681823730468,18.76,15841068.0,
0.4695,10.0,1.878,-0.0029153823852539062,1.878,16772121.0,18.78,-0.5377035140991211,18.78,15837511.0,
0.47,10.0,1.88,0.0049266815185546875,1.88,8610.0,18.8,-0.5392438888549804,18.8,15834819.0,
0.4705,10.0,1.882,0.006773185729980469,1.882,11837.0,18.82,-0.5405216217041016,18.82,15832586.0,
0.471,10.0,1.884,0.0020627975463867188,1.884,3605.0,18.84,-0.5411075592041016,18.84,15831562.0,
0.4715,10.0,1.886,0.0003147125244140625,1.886,550.0,18.86,-0.5416866302490234,18.86,15830550.0,
0.472,10.0,1.888,-0.0021114349365234375,1.888,16773526.0,18.88,-0.5416168212890625,18.88,15830672.0,
0.4725,10.0,1.89,-0.00810413360595703,1.89,16763053.0,18.9,-0.5411270141601562,18.9,15831528.0,
0.473,10.0,1.892,-0.012864303588867186,1.892,16754734.0,18.92,-0.5400472640991211,18.92,15833415.0,
0.4735,10.0,1.894,-0.006520271301269531,1.894,16765821.0,18.94,-0.5383432388305663,18.94,15836393.0,
0.474,10.0,1.896,0.002581214904785156,1.896,4511.0,18.96,-0.5371868133544921,18.96,15838414.0,
0.4745,10.0,1.898,0.007494163513183594,1.898,13097.0,18.98,-0.5356132507324218,18.98,15841164.0,
0.475,10.0,1.9,0.005410194396972656,1.9,9455.0,19.0,-0.5340534210205078,19.0,15843890.0,
0.4755,10.0,1.902,0.0012039184570312499,1.902,2104.0,19.02,-0.5316009521484375,19.02,15848176.0,
0.476,10.0,1.904,2.17437744140625e-05,1.904,38.0,19.04,-0.5297807693481446,19.04,15851357.0,
0.4765,10.0,1.906,-0.007371139526367187,1.906,16764334.0,19.06,-0.5277420043945312,19.06,15854920.0,
0.477,10.0,1.908,-0.012017440795898436,1.908,16756214.0,19.08,-0.5274324417114258,19.08,15855461.0,
0.4775,10.0,1.91,-0.010158920288085937,1.91,16759462.0,19.1,-0.5299015045166016,19.1,15851146.0,
0.478,10.0,1.912,0.0007261276245117187,1.912,1269.0,19.12,-0.5352968215942383,19.12,15841717.0,
0.4785,10.0,1.914,0.008045768737792969,1.914,14061.0,19.14,-0.541285514831543,19.14,15831251.0,
0.479,10.0,1.916,0.006353759765625,1.916,11104.0,19.16,-0.5468959808349609,19.16,15821446.0,
0.4795,10.0,1.918,0.0021068572998046873,1.918,3682.0,19.18,-0.5516613006591796,19.18,15813118.0,
0.48,10.0,1.92,0.0013412475585937499,1.92,2344.0,19.2,-0.5554962158203125,19.2,15806416.0,
0.4805,10.0,1.922,-0.005040550231933593,1.922,16768407.0,19.22,-0.5580345153808594,19.22,15801980.0,
0.481,10.0,1.924,-0.009496307373046875,1.924,16760620.0,19.24,-0.5597740173339844,19.24,15798940.0,
0.4815,10.0,1.926,-0.01250152587890625,1.926,16755368.0,19.26,-0.5601871490478515,19.26,15798218.0,
0.482,10.0,1.928,-0.0013715744018554688,1.928,16774819.0,19.28,-0.5597133636474609,19.28,15799046.0,
0.4825,10.0,1.93,0.005340957641601562,1.93,9334.0,19.3,-0.5589689254760742,19.3,15800347.0,
0.483,10.0,1.932,0.0085418701171875,1.932,14928.0,19.32,-0.5583784103393554,19.32,15801379.0,
0.4835,10.0,1.934,0.002840423583984375,1.934,4964.0,19.34,-0.5585105895996093,19.34,15801148.0,
0.484,10.0,1.936,0.0014196395874023437,1.936,2481.0,19.36,-0.5591348648071289,19.36,15800057.0,
0.4845,10.0,1.938,-0.0016050338745117188,1.938,16774411.0,19.38,-0.5597700119018555,19.38,15798947.0,
0.485,10.0,1.94,-0.008223152160644532,1.94,16762845.0,19.4,-0.5604143142700195,19.4,15797821.0,
0.4855,10.0,1.942,-0.011611175537109374,1.942,16756924.0,19.42,-0.5609264373779297,19.42,15796926.0,
0.486,10.0,1.944,-0.005039405822753906,1.944,16768409.0,19.44,-0.560727310180664,19.44,15797274.0,
0.4865,10.0,1.946,0.00471038818359375,1.946,8232.0,19.46,-0.5599748611450195,19.46,15798589.0,
0.487,10.0,1.948,0.008976173400878905,1.948,15687.0,19.48,-0.5588418960571289,19.48,15800569.0,
0.4875,10.0,1.95,0.005199623107910156,1.95,9087.0,19.5,-0.5569822311401367,19.5,15803819.0,
0.488,10.0,1.952,0.00036563873291015623,1.952,639.0,19.52,-0.5549577713012696,19.52,15807357.0,
0.4885,10.0,1.954,0.000501251220703125,1.954,876.0,19.54,-0.5527015686035156,19.54,15811300.0,
0.489,10.0,1.956,-0.007142257690429687,1.956,16764734.0,19.56,-0.5504224777221679,19.56,15815283.0,
0.4895,10.0,1.958,-0.010968017578125,1.958,16758048.0,19.58,-0.5479185104370117,19.58,15819659.0,
0.49,10.0,1.96,-0.009373855590820311,1.96,16760834.0,19.6,-0.5451026916503906,19.6,15824580.0,
0.4905,10.0,1.962,0.0012182235717773436,1.962,2129.0,19.62,-0.5419269561767578,19.62,15830130.0,
0.491,10.0,1.964,0.008023452758789061,1.964,14022.0,19.64,-0.5388542175292969,19.64,15835500.0,
0.4915,10.0,1.966,0.00663299560546875,1.966,11592.0,19.66,-0.5359869003295898,19.66,15840511.0,
0.492,10.0,1.968,0.0015913009643554687,1.968,2781.0,19.68,-0.5335641860961914,19.68,15844745.0,
0.4925,10.0,1.97,0.0011638641357421874,1.97,2034.0,19.7,-0.5331155776977539,19.7,15845529.0,
0.493,10.0,1.972,-0.004510688781738281,1.972,16769333.0,19.72,-0.5359977722167969,19.72,15840492.0,
0.4935,10.0,1.974,-0.009132957458496094,1.974,16761255.0,19.74,-0.5406177520751952,19.74,15832418.0,
0.494,10.0,1.976,-0.011488151550292968,1.976,16757139.0,19.76,-0.5454191207885742,19.76,15824027.0,
0.4945,10.0,1.978,-0.0010454177856445313,1.978,16775389.0,19.78,-0.5496105194091797,19.78,15816702.0,
0.495,10.0,1.98,0.006889915466308593,1.98,12041.0,19.8,-0.5526752471923828,19.8,15811346.0,
0.4955,10.0,1.982,0.008097267150878907,1.982,14151.0,19.82,-0.5547992706298828,19.82,15807634.0,
0.496,10.0,1.984,0.0029291152954101563,1.984,5119.0,19.84,-0.555659294128418,19.84,15806131.0,
0.4965,10.0,1.986,0.002130317687988281,1.986,3723.0,19.86,-0.5556913375854492,19.86,15806075.0,
0.497,10.0,1.988,-0.0013629913330078125,1.988,16774834.0,19.88,-0.5547100067138672,19.88,15807790.0,
0.4975,10.0,1.99,-0.008139610290527344,1.99,16762991.0,19.9,-0.5530157089233398,19.9,15810751.0,
0.498,10.0,1.992,-0.01152191162109375,1.992,16757080.0,19.92,-0.551634407043457,19.92,15813165.0,
0.4985,10.0,1.994,-0.004407119750976562,1.994,16769514.0,19.94,-0.5507034301757813,19.94,15814792.0,
0.499,10.0,1.996,0.00519561767578125,1.996,9080.0,19.96,-0.5500694274902344,19.96,15815900.0,
0.4995,10.0,1.998,0.008774185180664062,1.998,15334.0,19.98,-0.5497066497802734,19.98,15816534.0,
0.5,10.0,2.0,0.00568084716796875,2.0,9928.0,20.0,-0.549565315246582,20.0,15816781.0,
0.5005,10.0,2.002,0.00155181884765625,2.002,2712.0,20.02,-0.5491762161254883,20.02,15817461.0,
0.501,10.0,2.004,0.000286102294921875,2.004,500.0,20.04,-0.5485960006713867,20.04,15818475.0,
0.5015,10.0,2.006,-0.005818748474121093,2.006,16767047.0,20.06,-0.5475019454956055,20.06,15820387.0,
0.502,10.0,2.008,-0.01048736572265625,2.008,16758888.0,20.08,-0.5460439682006836,20.08,15822935.0,
0.5025,10.0,2.01,-0.008718109130859375,2.01,16761980.0,20.1,-0.5440103530883789,20.1,15826489.0,
0.503,10.0,2.012,0.002529144287109375,2.012,4420.0,20.12,-0.5420413970947265,20.12,15829930.0,
0.5035,10.0,2.014,0.009138679504394532,2.014,15971.0,20.14,-0.5394069671630859,20.14,15834534.0,
0.504,10.0,2.016,0.006931114196777344,2.016,12113.0,20.16,-0.5369035720825195,20.16,15838909.0,
0.5045,10.0,2.018,0.002499961853027344,2.018,4369.0,20.18,-0.5339927673339844,20.18,15843996.0,
0.505,10.0,2.02,0.0019895553588867186,2.02,3477.0,20.2,-0.5311546325683594,20.2,15848956.0,
0.5055,10.0,2.022,-0.003171730041503906,2.022,16771673.0,20.22,-0.5283336639404297,20.22,15853886.0,
0.506,10.0,2.024,-0.008734703063964844,2.024,16761951.0,20.24,-0.5253742218017577,20.24,15859058.0,
0.5065,10.0,2.026,-0.011072158813476562,2.026,16757866.0,20.26,-0.5220113754272461,20.26,15864935.0,
0.507,10.0,2.028,-0.00011959075927734374,2.028,16777007.0,20.28,-0.5191114425659179,20.28,15870003.0,
0.5075,10.0,2.03,0.008251762390136719,2.03,14421.0,20.3,-0.5166069030761719,20.3,15874380.0,
0.508,10.0,2.032,0.009126663208007812,2.032,15950.0,20.32,-0.5165943145751953,20.32,15874402.0,
0.5085,10.0,2.034,0.00406494140625,2.034,7104.0,20.34,-0.5195228576660156,20.34,15869284.0,
0.509,10.0,2.036,0.002130317687988281,2.036,3723.0,20.36,-0.5232473373413086,20.36,15862775.0,
0.5095,10.0,2.038,-0.000281524658203125,2.038,16776724.0,20.38,-0.5270158767700195,20.38,15856189.0,
0.51,10.0,2.04,-0.0065059661865234375,2.04,16765846.0,20.4,-0.5299993515014648,20.4,15850975.0,
0.5105,10.0,2.042,-0.011415481567382812,2.042,16757266.0,20.42,-0.5322967529296875,20.42,15846960.0,
0.511,10.0,2.044,-0.004230880737304687,2.044,16769822.0,20.44,-0.533928108215332,20.44,15844109.0,
0.5115,10.0,2.046,0.004269790649414062,2.046,7462.0,20.46,-0.534181022644043,20.46,15843667.0,
0.512,10.0,2.048,0.010113143920898437,2.048,17674.0,20.48,-0.5335830688476563,20.48,15844712.0,
0.5125,10.0,2.05,0.006505393981933593,2.05,11369.0,20.5,-0.5318166732788085,20.5,15847799.0,
0.513,10.0,2.052,0.0021297454833984373,2.052,3722.0,20.52,-0.5297658920288085,20.52,15851383.0,
0.5135,10.0,2.054,0.0022195816040039063,2.054,3879.0,20.54,-0.5277196884155273,20.54,15854959.0,
0.514,10.0,2.056,-0.006057357788085937,2.056,16766630.0,20.56,-0.5265277862548828,20.56,15857042.0,
0.5145,10.0,2.058,-0.011167144775390625,2.058,16757700.0,20.58,-0.5257719039916992,20.58,15858363.0,
0.515,10.0,2.06,-0.007085037231445312,2.06,16764834.0,20.6,-0.525355339050293,20.6,15859091.0,
0.5155,10.0,2.062,0.00296630859375,2.062,5184.0,20.62,-0.5249107360839843,20.62,15859868.0,
0.516,10.0,2.064,0.009900283813476561,2.064,17302.0,20.64,-0.5242801666259765,20.64,15860970.0,
0.5165,10.0,2.066,0.007890701293945312,2.066,13790.0,20.66,-0.5235649108886719,20.66,15862220.0,
0.517,10.0,2.068,0.0033170700073242186,2.068,5797.0,20.68,-0.5222379684448242,20.68,15864539.0,
0.5175,10.0,2.07,0.00262298583984375,2.07,4584.0,20.7,-0.5203720092773437,20.7,15867800.0,
0.518,10.0,2.072,-0.003542518615722656,2.072,16771025.0,20.72,-0.5182165145874024,20.72,15871567.0,
0.5185,10.0,2.074,-0.008920669555664062,2.074,16761626.0,20.74,-0.5158058166503906,20.74,15875780.0,
,,2.076,-0.009513473510742188,2.076,16760590.0,,,,,
,,2.078,-2.689361572265625e-05,2.078,16777169.0,,,,,
,,2.08,0.008137893676757811,2.08,14222.0,,,,,
,,2.082,0.009803009033203124,2.082,17132.0,,,,,
,,2.084,0.005380439758300781,2.084,9403.0,,,,,
,,2.086,0.00319976806640625,2.086,5592.0,,,,,
,,2.088,-0.0014036178588867187,2.088,16774763.0,,,,,
,,2.09,-0.0066890716552734375,2.09,16765526.0,,,,,
,,2.092,-0.010878181457519532,2.092,16758205.0,,,,,
,,2.094,-0.0013378143310546875,2.094,16774878.0,,,,,
,,2.096,0.005480003356933594,2.096,9577.0,,,,,
,,2.098,0.010193252563476562,2.098,17814.0,,,,,
,,2.1,0.006829261779785156,2.1,11935.0,,,,,
,,2.102,0.0031368255615234373,2.102,5482.0,,,,,
,,2.104,0.0014139175415039062,2.104,2471.0,,,,,
,,2.106,-0.0046325683593749995,2.106,16769120.0,,,,,
,,2.108,-0.009632492065429687,2.108,16760382.0,,,,,
,,2.11,-0.007532501220703125,2.11,16764052.0,,,,,
,,2.112,0.004084396362304688,2.112,7138.0,,,,,
,,2.114,0.010504531860351562,2.114,18358.0,,,,,
,,2.116,0.009197616577148437,2.116,16074.0,,,,,
,,2.118,0.0052127838134765625,2.118,9110.0,,,,,
,,2.12,0.004014015197753906,2.12,7015.0,,,,,
,,2.122,-0.00216522216796875,2.122,16773432.0,,,,,
,,2.124,-0.006575202941894531,2.124,16765725.0,,,,,
,,2.126,-0.008423995971679686,2.126,16762494.0,,,,,
,,2.128,0.0025371551513671876,2.128,4434.0,,,,,
,,2.13,0.011549949645996094,2.13,20185.0,,,,,
,,2.132,0.011776542663574219,2.132,20581.0,,,,,
,,2.134,0.006357765197753906,2.134,11111.0,,,,,
,,2.136,0.005482864379882812,2.136,9582.0,,,,,
,,2.138,0.0023792266845703122,2.138,4158.0,,,,,
,,2.14,-0.006044769287109375,2.14,16766652.0,,,,,
,,2.142,-0.009526634216308593,2.142,16760567.0,,,,,
,,2.144,-0.0016210556030273437,2.144,16774383.0,,,,,
,,2.146,0.0071125030517578125,2.146,12430.0,,,,,
,,2.148,0.010277366638183594,2.148,17961.0,,,,,
,,2.15,0.005875968933105468,2.15,10269.0,,,,,
,,2.152,0.0037633895874023436,2.152,6577.0,,,,,
,,2.154,0.0016948699951171875,2.154,2962.0,,,,,
,,2.156,-0.006424140930175781,2.156,16765989.0,,,,,
,,2.158,-0.009928894042968749,2.158,16759864.0,,,,,
,,2.16,-0.006273651123046875,2.16,16766252.0,,,,,
,,2.162,0.004493522644042969,2.162,7853.0,,,,,
,,2.164,0.010665321350097656,2.164,18639.0,,,,,
,,2.166,0.008682060241699218,2.166,15173.0,,,,,
,,2.168,0.004729843139648437,2.168,8266.0,,,,,
,,2.17,0.004056358337402343,2.17,7089.0,,,,,
,,2.172,-0.0012823104858398437,2.172,16774975.0,,,,,
,,2.174,-0.007224082946777344,2.174,16764591.0,,,,,
,,2.176,-0.008607101440429686,2.176,16762174.0,,,,,
,,2.178,0.0019523620605468748,2.178,3412.0,,,,,
,,2.18,0.009868240356445313,2.18,17246.0,,,,,
,,2.182,0.010751152038574218,2.182,18789.0,,,,,
,,2.184,0.0064544677734375,2.184,11280.0,,,,,
,,2.186,0.015645790100097656,2.186,27343.0,,,,,
,,2.188,0.009265136718749999,2.188,16192.0,,,,,
,,2.19,-0.002103424072265625,2.19,16773540.0,,,,,
,,2.192,-0.007030105590820312,2.192,16764930.0,,,,,
,,2.194,0.0005985260009765625,2.194,1046.0,,,,,
,,2.196,0.008918380737304688,2.196,15586.0,,,,,
,,2.198,0.012066650390625,2.198,21088.0,,,,,
,,2.2,0.007062149047851562,2.2,12342.0,,,,,
,,2.202,0.004062652587890625,2.202,7100.0,,,,,
,,2.204,0.0026653289794921872,2.204,4658.0,,,,,
,,2.206,-0.0043670654296875,2.206,16769584.0,,,,,
,,2.208,-0.010129737854003906,2.208,16759513.0,,,,,
,,2.21,-0.006180381774902343,2.21,16766415.0,,,,,
,,2.212,0.005415916442871094,2.212,9465.0,,,,,
,,2.214,0.012461471557617187,2.214,21778.0,,,,,
,,2.216,0.009739494323730469,2.216,17021.0,,,,,
,,2.218,0.005829048156738281,2.218,10187.0,,,,,
,,2.22,0.005184173583984375,2.22,9060.0,,,,,
,,2.222,-0.0009881973266601563,2.222,16775489.0,,,,,
,,2.224,-0.00605621337890625,2.224,16766632.0,,,,,
,,2.226,-0.006618690490722656,2.226,16765649.0,,,,,
,,2.228,0.0027202606201171876,2.228,4754.0,,,,,
,,2.23,0.01120777130126953,2.23,19587.0,,,,,
,,2.232,0.012316131591796875,2.232,21524.0,,,,,
,,2.234,0.006774330139160156,2.234,11839.0,,,,,
,,2.236,0.005481147766113281,2.236,9579.0,,,,,
,,2.238,0.003265571594238281,2.238,5707.0,,,,,
,,2.24,-0.0020954132080078123,2.24,16773554.0,,,,,
,,2.242,-0.0029972076416015622,2.242,16771978.0,,,,,
,,2.244,0.008267784118652343,2.244,14449.0,,,,,
,,2.246,0.017326927185058592,2.246,30281.0,,,,,
,,2.248,0.019537925720214844,2.248,34145.0,,,,,
,,2.25,0.015647506713867186,2.25,27346.0,,,,,
,,2.252,0.011731338500976561,2.252,20502.0,,,,,
,,2.254,0.013406181335449218,2.254,23429.0,,,,,
,,2.256,0.002133750915527344,2.256,3729.0,,,,,
,,2.258,-0.002361488342285156,2.258,16773089.0,,,,,
,,2.26,-0.0016582489013671875,2.26,16774318.0,,,,,
,,2.262,0.007693862915039062,2.262,13446.0,,,,,
,,2.264,0.01093311309814453,2.264,19107.0,,,,,
,,2.266,0.0048236846923828125,2.266,8430.0,,,,,
,,2.268,-0.0006488800048828125,2.268,16776082.0,,,,,
,,2.27,-0.0030195236206054686,2.27,16771939.0,,,,,
,,2.272,-0.009116363525390624,2.272,16761284.0,,,,,
,,2.274,-0.012621688842773437,2.274,16755158.0,,,,,
,,2.276,-0.012816810607910156,2.276,16754817.0,,,,,
,,2.278,-0.00023288726806640624,2.278,16776809.0,,,,,
,,2.28,0.01036090850830078,2.28,18107.0,,,,,
,,2.282,0.009851646423339843,2.282,17217.0,,,,,
,,2.284,0.005825042724609375,2.284,10180.0,,,,,
,,2.286,0.004389381408691406,2.286,7671.0,,,,,
,,2.288,0.0022069931030273436,2.288,3857.0,,,,,
,,2.29,-0.003769111633300781,2.29,16770629.0,,,,,
,,2.292,-0.007134819030761718,2.292,16764747.0,,,,,
,,2.294,0.0009653091430664062,2.294,1687.0,,,,,
,,2.296,0.009205055236816405,2.296,16087.0,,,,,
,,2.298,0.013309478759765625,2.298,23260.0,,,,,
,,2.3,0.008224868774414062,2.3,14374.0,,,,,
,,2.302,0.0057884216308593745,2.302,10116.0,,,,,
,,2.304,0.0033617019653320312,2.304,5875.0,,,,,
,,2.306,-0.0030012130737304688,2.306,16771971.0,,,,,
,,2.308,-0.0070896148681640625,2.308,16764826.0,,,,,
,,2.31,-0.003055572509765625,2.31,16771876.0,,,,,
,,2.312,0.008632850646972655,2.312,15087.0,,,,,
,,2.314,0.014015007019042968,2.314,24493.0,,,,,
,,2.316,0.01106414794921875,2.316,19336.0,,,,,
,,2.318,0.006743431091308594,2.318,11785.0,,,,,
,,2.32,0.006229019165039062,2.32,10886.0,,,,,
,,2.322,-0.0003490447998046875,2.322,16776606.0,,,,,
,,2.324,-0.005550384521484375,2.324,16767516.0,,,,,
,,2.326,-0.006435585021972656,2.326,16765969.0,,,,,
,,2.328,0.005007362365722656,2.328,8751.0,,,,,
,,2.33,0.01300506591796875,2.33,22728.0,,,,,
,,2.332,0.0136322021484375,2.332,23824.0,,,,,
,,2.334,0.008167076110839843,2.334,14273.0,,,,,
,,2.336,0.006810951232910156,2.336,11903.0,,,,,
,,2.338,0.0030984878540039062,2.338,5415.0,,,,,
,,2.34,-0.00276947021484375,2.34,16772376.0,,,,,
,,2.342,-0.006901359558105468,2.342,16765155.0,,,,,
,,2.344,0.002707672119140625,2.344,4732.0,,,,,
,,2.346,0.011325645446777343,2.346,19793.0,,,,,
,,2.348,0.015163993835449217,2.348,26501.0,,,,,
,,2.35,0.010882186889648437,2.35,19018.0,,,,,
,,2.352,0.006574058532714843,2.352,11489.0,,,,,
,,2.354,0.005940628051757812,2.354,10382.0,,,,,
,,2.356,-0.0016450881958007812,2.356,16774341.0,,,,,
,,2.358,-0.006265068054199218,2.358,16766267.0,,,,,
,,2.36,-0.00031414031982421873,2.36,16776667.0,,,,,
,,2.362,0.010055923461914062,2.362,17574.0,,,,,
,,2.364,0.015824317932128906,2.364,27655.0,,,,,
,,2.366,0.014264488220214843,2.366,24929.0,,,,,
,,2.368,0.009257698059082031,2.368,16179.0,,,,,
,,2.37,0.007624626159667969,2.37,13325.0,,,,,
,,2.372,0.0015598297119140624,2.372,2726.0,,,,,
,,2.374,-0.0030132293701171874,2.374,16771950.0,,,,,
,,2.376,-0.004377937316894531,2.376,16769565.0,,,,,
,,2.378,0.007190895080566406,2.378,12567.0,,,,,
,,2.38,0.01615447998046875,2.38,28232.0,,,,,
,,2.382,0.015981674194335938,2.382,27930.0,,,,,
,,2.384,0.010584068298339843,2.384,18497.0,,,,,
,,2.386,0.009254264831542968,2.386,16173.0,,,,,
,,2.388,0.005631637573242187,2.388,9842.0,,,,,
,,2.39,-0.00074615478515625,2.39,16775912.0,,,,,
,,2.392,-0.003949356079101562,2.392,16770314.0,,,,,
,,2.394,0.005371856689453125,2.394,9388.0,,,,,
,,2.396,0.013947486877441406,2.396,24375.0,,,,,
,,2.398,0.0179718017578125,2.398,31408.0,,,,,
,,2.4,0.01259765625,2.4,22016.0,,,,,
,,2.402,0.010042762756347657,2.402,17551.0,,,,,
,,2.404,0.010356903076171875,2.404,18100.0,,,,,
,,2.406,0.00200958251953125,2.406,3512.0,,,,,
,,2.408,-0.0033044815063476562,2.408,16771441.0,,,,,
,,2.41,0.0023506164550781247,2.41,4108.0,,,,,
,,2.412,0.013443946838378906,2.412,23495.0,,,,,
,,2.414,0.01945323944091797,2.414,33997.0,,,,,
,,2.416,0.015613746643066405,2.416,27287.0,,,,,
,,2.418,0.012058067321777343,2.418,21073.0,,,,,
,,2.42,0.011402320861816405,2.42,19927.0,,,,,
,,2.422,0.005797576904296875,2.422,10132.0,,,,,
,,2.424,0.0009098052978515625,2.424,1590.0,,,,,
,,2.426,0.000743865966796875,2.426,1300.0,,,,,
,,2.428,0.011345672607421874,2.428,19828.0,,,,,
,,2.43,0.019455528259277342,2.43,34001.0,,,,,
,,2.432,0.019692420959472656,2.432,34415.0,,,,,
,,2.434,0.014414978027343749,2.434,25192.0,,,,,
,,2.436,0.013454246520996093,2.436,23513.0,,,,,
,,2.438,0.009371566772460937,2.438,16378.0,,,,,
,,2.44,0.0038703918457031247,2.44,6764.0,,,,,
,,2.442,-0.00018024444580078125,2.442,16776901.0,,,,,
,,2.444,0.008604812622070312,2.444,15038.0,,,,,
,,2.446,0.017361831665039063,2.446,30342.0,,,,,
,,2.448,0.02170085906982422,2.448,37925.0,,,,,
,,2.45,0.01685657501220703,2.45,29459.0,,,,,
,,2.452,0.013750648498535157,2.452,24031.0,,,,,
,,2.454,0.011992263793945312,2.454,20958.0,,,,,
,,2.456,0.005017662048339843,2.456,8769.0,,,,,
,,2.458,0.00029354095458984376,2.458,513.0,,,,,
,,2.46,0.005203628540039062,2.46,9094.0,,,,,
,,2.462,0.016803932189941407,2.462,29367.0,,,,,
,,2.464,0.021979522705078126,2.464,38412.0,,,,,
,,2.466,0.01967010498046875,2.466,34376.0,,,,,
,,2.468,0.015335655212402342,2.468,26801.0,,,,,
,,2.47,0.013713455200195313,2.47,23966.0,,,,,
,,2.472,0.007301902770996093,2.472,12761.0,,,,,
,,2.474,0.002130889892578125,2.474,3724.0,,,,,
,,2.476,0.0008869171142578125,2.476,1550.0,,,,,
,,2.478,0.01242828369140625,2.478,21720.0,,,,,
,,2.48,0.020288658142089844,2.48,35457.0,,,,,
,,2.482,0.019173431396484374,2.482,33508.0,,,,,
,,2.484,0.013895416259765625,2.484,24284.0,,,,,
,,2.486,0.012477493286132813,2.486,21806.0,,,,,
,,2.488,0.008245468139648438,2.488,14410.0,,,,,
,,2.49,0.001544952392578125,2.49,2700.0,,,,,
,,2.492,-0.002469635009765625,2.492,16772900.0,,,,,
,,2.494,0.007365989685058593,2.494,12873.0,,,,,
,,2.496,0.0150054931640625,2.496,26224.0,,,,,
,,2.498,0.01822528839111328,2.498,31851.0,,,,,
,,2.5,0.01220111846923828,2.5,21323.0,,,,,
,,2.502,0.008984756469726561,2.502,15702.0,,,,,
,,2.504,0.006325721740722656,2.504,11055.0,,,,,
,,2.506,0.0005905151367187499,2.506,1032.0,,,,,
,,2.508,-0.0046783447265624995,2.508,16769040.0,,,,,
,,2.51,-0.0006093978881835938,2.51,16776151.0,,,,,
,,2.512,0.010247611999511718,2.512,17909.0,,,,,
,,2.514,0.014812660217285155,2.514,25887.0,,,,,
,,2.516,0.012143898010253906,2.516,21223.0,,,,,
,,2.518,0.0076732635498046875,2.518,13410.0,,,,,
,,2.52,0.006726264953613281,2.52,11755.0,,,,,
,,2.522,-0.0015094757080078125,2.522,16774578.0,,,,,
,,2.524,-0.0056934356689453125,2.524,16767266.0,,,,,
,,2.526,-0.0065277099609375,2.526,16765808.0,,,,,
,,2.528,0.004495811462402344,2.528,7857.0,,,,,
,,2.53,0.014776039123535156,2.53,25823.0,,,,,
,,2.532,0.012957000732421875,2.532,22644.0,,,,,
,,2.534,0.006691360473632812,2.534,11694.0,,,,,
,,2.536,0.005576133728027344,2.536,9745.0,,,,,
,,2.538,0.0015558242797851561,2.538,2719.0,,,,,
,,2.54,-0.004752731323242187,2.54,16768910.0,,,,,
,,2.542,-0.008278656005859374,2.542,16762748.0,,,,,
,,2.544,0.0017171859741210937,2.544,3001.0,,,,,
,,2.546,0.010150909423828125,2.546,17740.0,,,,,
,,2.548,0.013128662109375,2.548,22944.0,,,,,
,,2.55,0.0073905944824218745,2.55,12916.0,,,,,
,,2.552,0.00495758056640625,2.552,8664.0,,,,,
,,2.554,0.0029560089111328124,2.554,5166.0,,,,,
,,2.556,-0.0038572311401367187,2.556,16770475.0,,,,,
,,2.558,-0.008737564086914062,2.558,16761946.0,,,,,
,,2.56,-0.004062652587890625,2.56,16770116.0,,,,,
,,2.562,0.007708740234375,2.562,13472.0,,,,,
,,2.564,0.012554740905761719,2.564,21941.0,,,,,
,,2.566,0.009599876403808593,2.566,16777.0,,,,,
,,2.568,0.0054073333740234375,2.568,9450.0,,,,,
,,2.57,0.004372215270996093,2.57,7641.0,,,,,
,,2.572,-0.0016977310180664063,2.572,16774249.0,,,,,
,,2.574,-0.007146263122558593,2.574,16764727.0,,,,,
,,2.576,-0.007633209228515625,2.576,16763876.0,,,,,
,,2.578,0.0036924362182617185,2.578,6453.0,,,,,
,,2.58,0.012467765808105468,2.58,21789.0,,,,,
,,2.582,0.009703445434570312,2.582,16958.0,,,,,
,,2.584,0.005913162231445312,2.584,10334.0,,,,,
,,2.586,0.0050411224365234375,2.586,8810.0,,,,,
,,2.588,4.6920776367187496e-05,2.588,82.0,,,,,
,,2.59,-0.00564422607421875,2.59,16767352.0,,,,,
,,2.592,-0.008883476257324219,2.592,16761691.0,,,,,
,,2.594,6.523132324218749e-05,2.594,114.0,,,,,
,,2.596,0.008647727966308593,2.596,15113.0,,,,,
,,2.598,0.012004280090332031,2.598,20979.0,,,,,
,,2.6,0.007598876953125,2.6,13280.0,,,,,
,,2.602,0.003728485107421875,2.602,6516.0,,,,,
,,2.604,0.002217864990234375,2.604,3876.0,,,,,
,,2.606,-0.00439910888671875,2.606,16769528.0,,,,,
,,2.608,-0.009245109558105468,2.608,16761059.0,,,,,
,,2.61,-0.0028484344482421872,2.61,16772238.0,,,,,
,,2.612,0.0072498321533203125,2.612,12670.0,,,,,
,,2.614,0.011807441711425781,2.614,20635.0,,,,,
,,2.616,0.008376502990722656,2.616,14639.0,,,,,
,,2.618,0.004229164123535156,2.618,7391.0,,,,,
,,2.62,0.003394317626953125,2.62,5932.0,,,,,
,,2.622,-0.0029623031616210936,2.622,16772039.0,,,,,
,,2.624,-0.007496452331542968,2.624,16764115.0,,,,,
,,2.626,-0.007519340515136718,2.626,16764075.0,,,,,
,,2.628,0.003719329833984375,2.628,6500.0,,,,,
,,2.63,0.011090469360351561,2.63,19382.0,,,,,
,,2.632,0.010486793518066405,2.632,18327.0,,,,,
,,2.634,0.006484222412109375,2.634,11332.0,,,,,
,,2.636,0.003856658935546875,2.636,6740.0,,,,,
,,2.638,-0.0003650665283203125,2.638,16776578.0,,,,,
,,2.64,-0.00626678466796875,2.64,16766264.0,,,,,
,,2.642,-0.009134674072265625,2.642,16761252.0,,,,,
,,2.644,0.0006053924560546875,2.644,1058.0,,,,,
,,2.646,0.010736846923828125,2.646,18764.0,,,,,
,,2.648,0.011908149719238282,2.648,20811.0,,,,,
,,2.65,0.007531356811523437,2.65,13162.0,,,,,
,,2.652,0.004184532165527344,2.652,7313.0,,,,,
,,2.654,0.002244758605957031,2.654,3923.0,,,,,
,,2.656,-0.004608535766601562,2.656,16769162.0,,,,,
,,2.658,-0.008662605285644531,2.658,16762077.0,,,,,
,,2.66,-0.0027053833007812497,2.66,16772488.0,,,,,
,,2.662,0.006793212890625,2.662,11872.0,,,,,
,,2.664,0.012736129760742187,2.664,22258.0,,,,,
,,2.666,0.009445953369140624,2.666,16508.0,,,,,
,,2.668,0.004466629028320312,2.668,7806.0,,,,,
,,2.67,0.003437232971191406,2.67,6007.0,,,,,
,,2.672,-0.002410125732421875,2.672,16773004.0,,,,,
,,2.674,-0.006997489929199218,2.674,16764987.0,,,,,
,,2.676,-0.007412338256835937,2.676,16764262.0,,,,,
,,2.678,0.004035758972167969,2.678,7053.0,,,,,
,,2.68,0.0121856689453125,2.68,21296.0,,,,,
,,2.682,0.010739707946777343,2.682,18769.0,,,,,
,,2.684,0.007586860656738281,2.684,13259.0,,,,,
,,2.686,0.004779624938964844,2.686,8353.0,,,,,
,,2.688,-0.001407623291015625,2.688,16774756.0,,,,,
,,2.69,-0.006300544738769531,2.69,16766205.0,,,,,
,,2.692,-0.009159278869628905,2.692,16761209.0,,,,,
,,2.694,0.0004995346069335937,2.694,873.0,,,,,
,,2.696,0.010621261596679686,2.696,18562.0,,,,,
,,2.698,0.010994911193847656,2.698,19215.0,,,,,
,,2.7,0.005738067626953125,2.7,10028.0,,,,,
,,2.702,0.004665184020996094,2.702,8153.0,,,,,
,,2.704,0.0021640777587890623,2.704,3782.0,,,,,
,,2.706,-0.005632781982421875,2.706,16767372.0,,,,,
,,2.708,-0.009003067016601562,2.708,16761482.0,,,,,
,,2.71,-0.0028730392456054687,2.71,16772195.0,,,,,
,,2.712,0.006886482238769531,2.712,12035.0,,,,,
,,2.714,0.011884689331054688,2.714,20770.0,,,,,
,,2.716,0.008551025390625,2.716,14944.0,,,,,
,,2.718,0.003994560241699218,2.718,6981.0,,,,,
,,2.72,0.0026670455932617187,2.72,4661.0,,,,,
,,2.722,-0.003209495544433594,2.722,16771607.0,,,,,
,,2.724,-0.007763099670410156,2.724,16763649.0,,,,,
,,2.726,-0.006689643859863281,2.726,16765525.0,,,,,
,,2.728,0.0037748336791992186,2.728,6597.0,,,,,
,,2.73,0.011983680725097656,2.73,20943.0,,,,,
,,2.732,0.009625625610351561,2.732,16822.0,,,,,
,,2.734,0.005053138732910156,2.734,8831.0,,,,,
,,2.736,0.003965950012207031,2.736,6931.0,,,,,
,,2.738,-0.0018476486206054686,2.738,16773987.0,,,,,
,,2.74,-0.006679916381835937,2.74,16765542.0,,,,,
,,2.742,-0.009201622009277344,2.742,16761135.0,,,,,
,,2.744,0.0014848709106445312,2.744,2595.0,,,,,
,,2.746,0.008945274353027343,2.746,15633.0,,,,,
,,2.748,0.011298751831054688,2.748,19746.0,,,,,
,,2.75,0.00618438720703125,2.75,10808.0,,,,,
,,2.752,0.004574203491210937,2.752,7994.0,,,,,
,,2.754,0.0015398025512695312,2.754,2691.0,,,,,
,,2.756,-0.0051475524902343745,2.756,16768220.0,,,,,
,,2.758,-0.010336875915527344,2.758,16759151.0,,,,,
,,2.76,-0.0022464752197265624,2.76,16773290.0,,,,,
,,2.762,0.007008934020996093,2.762,12249.0,,,,,
,,2.764,0.011535072326660156,2.764,20159.0,,,,,
,,2.766,0.00908660888671875,2.766,15880.0,,,,,
,,2.768,0.0034378051757812497,2.768,6008.0,,,,,
,,2.77,0.0030858993530273435,2.77,5393.0,,,,,
,,2.772,-0.0033634185791015622,2.772,16771338.0,,,,,
,,2.774,-0.00759429931640625,2.774,16763944.0,,,,,
,,2.776,-0.006750297546386719,2.776,16765419.0,,,,,
,,2.778,0.004547882080078125,2.778,7948.0,,,,,
,,2.78,0.011924171447753906,2.78,20839.0,,,,,
,,2.782,0.01073455810546875,2.782,18760.0,,,,,
,,2.784,0.004979896545410156,2.784,8703.0,,,,,
,,2.786,0.004851150512695313,2.786,8478.0,,,,,
,,2.788,-0.0012279510498046874,2.788,16775070.0,,,,,
,,2.79,-0.0056133270263671875,2.79,16767406.0,,,,,
,,2.792,-0.008883476257324219,2.792,16761691.0,,,,,
,,2.794,0.0019804000854492187,2.794,3461.0,,,,,
,,2.796,0.010035324096679687,2.796,17538.0,,,,,
,,2.798,0.012067222595214843,2.798,21089.0,,,,,
,,2.8,0.006806373596191406,2.8,11895.0,,,,,
,,2.802,0.004247474670410156,2.802,7423.0,,,,,
,,2.804,0.0027608871459960938,2.804,4825.0,,,,,
,,2.806,-0.0041633605957031245,2.806,16769940.0,,,,,
,,2.808,-0.00858478546142578,2.808,16762213.0,,,,,
,,2.81,-0.0013286590576171875,2.81,16774894.0,,,,,
,,2.812,0.008631706237792969,2.812,15085.0,,,,,
,,2.814,0.013330078125,2.814,23296.0,,,,,
,,2.816,0.010992050170898438,2.816,19210.0,,,,,
,,2.818,0.006290245056152344,2.818,10993.0,,,,,
,,2.82,0.005443954467773437,2.82,9514.0,,,,,
,,2.822,-0.0016159057617187499,2.822,16774392.0,,,,,
,,2.824,-0.006845283508300781,2.824,16765253.0,,,,,
,,2.826,-0.005898857116699218,2.826,16766907.0,,,,,
,,2.828,0.006035614013671875,2.828,10548.0,,,,,
,,2.83,0.012606239318847657,2.83,22031.0,,,,,
